1798
3999.43349933624
650.420452594757
1
2
4
0.00515898608631926
0.00480173559182004
0.00510289480110552
0.00542800057801563
0.00534423400925593
0.00486055187313195
0.00466718908562888
0.0054640560836585
0.00595873906736043
0.00581675244860204
0.0056464542951227
0.00538248409067528
0.00479058468092138
0.00450008784992426
0.00471515634367387
0.00495005670916144
0.00523023519144692
0.00551903078495257
0.00527279259960791
0.00495959017589197
0.00508524712903122
0.00547858414032217
0.00549974959765682
0.00501317166329389
0.00478270665857374
0.00516596332474803
0.00541595681179153
0.00521789768871485
0.00462656056583651
0.00469553417316607
0.00467393070902766
0.004577078802013
0.00513855989914088
0.00536435983136881
0.00529665423316694
0.00496372282305035
0.00445059532442284
0.00431438122527481
0.00471954260540837
0.00524869928776432
0.0051087088423494
0.00482223677739485
0.00517686990891214
0.00555727145965753
0.00490533037044845
0.00471658312756718
0.00494482671363112
0.00495225925260922
0.00506182291047626
0.00508771592401087
0.00517452951527619
0.00514367274215242
0.00504533014719528
0.00496388968537066
0.0049806623568743
0.00502867993497616
0.00503910468217463
0.00478212325427703
0.00452197981794627
0.00517591683937276
0.00567044961686926
0.00502637515377301
0.00490917556079831
0.00529062575751301
0.00489642210228127
0.00458857560437633
0.00456158867903708
0.0045585849963586
0.00470819262493156
0.00491257606159814
0.00478502223008072
0.00470956617206635
0.0049618701134943
0.00539731691274988
0.00538563573952949
0.00487742226257356
0.00508281566523742
0.00572475990368075
0.00503835200609772
0.00416049999256548
0.00389619500636652
0.00456049052971026
0.00518087523504433
0.00514748300492473
0.00528973183453981
0.00507796206515887
0.00446934358058379
0.00493997745075849
0.00547844209163118
0.00489090361477437
0.00434192044636583
0.00430365605938348
0.00472207444305295
0.00544516081089232
0.00602620084569911
0.00540924934763303
0.00501877180988934
0.00496955976342468
0.00438885986590281
0.00436780642033254
0.00417564892944002
0.00399946359703078
0.00447577620567412
0.0051670955386461
0.00540125803349209
0.00515900219806185
0.00473395870747685
0.00444798892671186
0.00437741589940988
0.00452585095713753
0.00493446827826178
0.00510082229280642
0.00501865473953916
0.00512036683226331
0.00501111320097166
0.00433073796249476
0.00438232239616829
0.00475115527038346
0.00441216537216537
0.0048532907372064
0.00511036378775741
0.00490888631876681
0.00478733245859261
0.00456612076088449
0.00440722641372135
0.00464499688420714
0.00480318008261577
0.0047892307097987
0.00470920876173088
0.00497292952752788
0.00470690083381921
0.0047776626314201
0.00513316208783671
0.00462035326841223
0.00338068870004813
0.00376230253866126
0.00387577310669334
0.00329995620496141
0.00386572089250231
0.00492815434671345
0.00544682760251579
0.00522449244862437
0.00424116584676611
0.00358902316251557
0.00399864817968762
0.00431778332784921
0.00447208268494681
0.0040863736739915
0.00395333761248704
0.0041552193238809
0.00452655118557123
0.00446799753685349
0.00457276961439865
0.0052901595772969
0.00538392608160861
0.00423815780285187
0.00375109852946173
0.0043572450360553
0.00516259031629148
0.00569999100262108
0.00627482366848031
0.00689669731964689
0.00699252319768504
0.0063208959400682
0.00601504887821047
0.00655474637057272
0.00661415248414635
0.00575835094915277
0.00532778108949271
0.00544940460502433
0.00564996257510652
0.00595844342518359
0.00706507037790325
0.00695539758317574
0.0056159247192699
0.00650538726228414
0.00686043589934091
0.00596658229187844
0.00542653783764645
0.00589665813544159
0.00664648680309342
0.00728384892298182
0.0074598090449724
0.00729132847300986
0.00722043551308222
0.00803146350325135
0.00839930197340812
0.00780760436304918
0.00734404014455827
0.00754871260994371
0.00821405544551325
0.00844369815444486
0.00930153908273338
0.00985769393277382
0.00918615617062493
0.00974385535325183
0.010735095767928
0.0114498972965113
0.010650947553898
0.00972256506260924
0.0106074767428263
0.0111062354674667
0.0111266239420531
0.0107926237242615
0.010380776992615
0.0113928978131964
0.012016388002669
0.011440472722577
0.0107177237872047
0.0112653702321137
0.0115206565980281
0.0119686246391849
0.0119676147104639
0.0116085262420026
0.0120152337815165
0.0117243362282157
0.0116969465625741
0.0123268956627662
0.0126637621947747
0.012517988132362
0.0111503515658621
0.0108590201437336
0.0112201868248241
0.0108576975946499
0.0109915143868676
0.0114432192487051
0.0120918502493406
0.0120934701616737
0.011714164909923
0.0123235733799937
0.0133371878455285
0.0127078666916986
0.0108155350213746
0.0104828994140768
0.0119356722713337
0.0120431063605947
0.0120422186149168
0.0124752660436112
0.0124792356936973
0.01240033955287
0.0122903182336089
0.0120999262639014
0.0121465474686185
0.0126304497122223
0.0132763905242796
0.0138818493604751
0.012877910342202
0.0131638305974989
0.0142778411356308
0.0139775665857848
0.0125192748521772
0.0118728632865623
0.0117534619586374
0.0117547695986016
0.0127933444527453
0.013119084475733
0.0123956813828399
0.0131763425018596
0.0135955941939265
0.0140183164439328
0.0140044156314995
0.0133034571517073
0.0133239484907893
0.0135740668393961
0.0136793837029166
0.0138754086377277
0.013391194975895
0.013345317544067
0.0143616974928521
0.0146011317753662
0.0148127107471506
0.0148208061685159
0.0144196056375149
0.0149642989806884
0.015779031699815
0.0161029188806175
0.015721572282649
0.0151416195180831
0.0148099202140558
0.0143436912558797
0.0148118382535139
0.0149073657780733
0.0147101842758964
0.015800358808863
0.0159151330503451
0.0153253674842721
0.0157571831617349
0.0151090641612834
0.0156005569243694
0.0161881952300321
0.0153926738640753
0.0148789396937251
0.0150264583336633
0.014863074680649
0.0149874656323866
0.0163325409744097
0.0163163438364044
0.0157631845338051
0.0159714806289413
0.0168907900394645
0.01738065501717
0.0168420300854337
0.0160960628349563
0.0162281209208221
0.0163373261935506
0.0165400868617173
0.016033555213528
0.0152603609387217
0.0145392252835853
0.0142771857570075
0.0148580495721093
0.0154956410591984
0.0157593775325963
0.0160594938475076
0.0162862279670217
0.0165521453423464
0.0165675968003311
0.0163065719438314
0.0160164181075638
0.0158840671161675
0.0159953613909696
0.016223747230633
0.0163045931580944
0.0170696038876495
0.0170298331817217
0.015827148283349
0.0156047324601244
0.0159252960715007
0.0163130392356224
0.0165144401749647
0.0162150722094321
0.0163004498867804
0.0161389660346182
0.0161344612006461
0.0165684442387115
0.0167519308323318
0.0166998817985486
0.0167676531485566
0.016542523232176
0.0169804776266808
0.017225906586676
0.0165040451964584
0.0164273662075002
0.0165730297910501
0.0167408718698366
0.0169309891873222
0.0173896221764738
0.0180187247691709
0.0176398392455246
0.016527753935997
0.0162050003505522
0.0167513758738939
0.0169242013252181
0.017151144694606
0.017289161685516
0.0170014855471492
0.0166055434132363
0.0168126980702459
0.0169224121624179
0.0172466065760711
0.0177692369059303
0.0175244663957086
0.0171689421353334
0.0169589290944945
0.0172887387738022
0.0181453648901136
0.0184639532437686
0.0179202075415402
0.017207362218615
0.0168073775049868
0.0168274315510864
0.0176027230616105
0.0180167757882765
0.0180638242138231
0.0178693261179461
0.0172301325075258
0.0170116415596461
0.0172132325111259
0.0173790556508241
0.0176061860748278
0.017421111511067
0.0175614208851945
0.0180739769958979
0.0173588037464697
0.0168339123990196
0.0172751792910085
0.0174145428481088
0.0171335942058547
0.0170501314352578
0.0177096762950856
0.0180699711685851
0.0181198679458598
0.0180069573043979
0.0171539823722268
0.0165960316342587
0.0169106325120556
0.016952698153141
0.0172897908744241
0.0176218768432797
0.0175794264033404
0.0173242576223008
0.0171931998421917
0.017216089072338
0.016867679586316
0.0167090365040894
0.0167996872296406
0.0171807739693061
0.0172422896235933
0.0167772183499491
0.0166907936489531
0.0173437902435899
0.0171236606657467
0.0166284320050099
0.01641584235752
0.0164575601119721
0.0164453933361205
0.0163534796778877
0.0164922176698088
0.0162214924345588
0.0163524659882288
0.0170665364723352
0.0171427740916084
0.0169304101396687
0.0163606342120836
0.015715536295899
0.0156772285220994
0.0157061514063242
0.0157804049144122
0.0158479309353206
0.015869461234681
0.0158666217380234
0.0154889091989976
0.0150536275299089
0.0151709616871189
0.015279098735131
0.0156088910142823
0.0158053517928472
0.0153908722597786
0.0154126866101736
0.0154912516092426
0.0148540062294839
0.0146843536912669
0.0152913468154944
0.0154752932007504
0.0154270450355731
0.0154049632806393
0.0151472294055165
0.0147524358221221
0.014725467833735
0.015160263728279
0.0152407419111506
0.014332776059582
0.0136830059858448
0.0139777083509974
0.0143222279300925
0.014481000072764
0.0144744601377418
0.0142798893272035
0.0141238549832017
0.0142586016639932
0.0142700884696753
0.0140542975949855
0.0142622900630154
0.014405209699437
0.0138666824390659
0.0137194593707916
0.0140592724188837
0.0138791344036865
0.0135289847378853
0.0134163872139901
0.0133404291463779
0.0139387557364923
0.0143455678246553
0.0138549175884675
0.0133663295492621
0.0130820773248936
0.0131381300530543
0.0135514225079273
0.013849520017008
0.0135896026689874
0.0136031444519628
0.0137711595870755
0.0133106983371648
0.0130657482393019
0.0129909813622537
0.0129247391717484
0.0131355239043472
0.0129031064126207
0.0128030205084192
0.0130511667880985
0.012976354086469
0.0129437145405643
0.0127867342815082
0.0126917907514992
0.0131365960391695
0.0133123776508354
0.0132652007687029
0.0129580117659994
0.0125401262177053
0.012732501112548
0.0128941787254036
0.0125128913711322
0.0119749619000291
0.0119218912810061
0.0122066771086887
0.0120646544017862
0.0117391156575711
0.0117284497900039
0.0119222566316076
0.0121867201335135
0.0122576991619934
0.0122028935768298
0.0119610665739349
0.0115485657687678
0.0114545611034755
0.0118628746341023
0.0122685308916705
0.0119530300208874
0.0115446302892369
0.0116123300718398
0.0114094025115531
0.0111135832764784
0.0113719720489007
0.0117060551588304
0.0114985548952374
0.0109057941240388
0.0106590922876811
0.0109446448745213
0.0110547726432265
0.0109689917918844
0.0111698852516105
0.0113525441102136
0.0112884045992733
0.0110760223197311
0.0109341780357249
0.0108288587801133
0.0105147438537285
0.010373794741479
0.0106141928249829
0.0107932276849936
0.0108414318577193
0.0107543131577714
0.0105103820475291
0.0104047292764668
0.0105949771879133
0.0108156279035644
0.0106257064898641
0.0104931091512597
0.0106632653915701
0.0105257679593291
0.010433569066228
0.0106912337811342
0.0109268391623866
0.0109869379178701
0.0107459631723659
0.0106567354447079
0.0107519558037041
0.0106923606058274
0.0105417263118774
0.0108188264727536
0.0109841917608369
0.0106868124051458
0.010632317718104
0.0106876276450699
0.0107593327735338
0.0105900770414088
0.010329485831914
0.0103189855261875
0.0104262347109554
0.010706238419753
0.0110451785548172
0.0109352090042142
0.0104120382975918
0.0101717587610865
0.0104549129842014
0.0106952606846428
0.0107914721871055
0.0110306728254334
0.0111384051171167
0.0110281524047234
0.0107393391365958
0.0102790522261072
0.0102224832391733
0.0103444623554441
0.010575089485195
0.0107036655177495
0.0102585801721761
0.00989511993607012
0.010089997813185
0.0103300402909379
0.0102367867538313
0.00991926419533304
0.0100546752926041
0.010192474196528
0.0099527281780908
0.00993533067039934
0.0100995422313659
0.00995707842900455
0.009989691191314
0.00996444573527287
0.00989940919962834
0.010004395415554
0.0100245805172055
0.0100686593589353
0.0101797170332244
0.00988145386066174
0.00986756369932928
0.0100959230702232
0.0097075992878825
0.00943023393078061
0.00943965033182978
0.00937389726966188
0.00944957909770835
0.00968723613587662
0.00980992947191588
0.00971334256144849
0.009527424356186
0.00966493034468304
0.00981119414398353
0.00985015692430202
0.00989811868934105
0.00963687638639462
0.00942193024062399
0.00950659183033082
0.00948088671644992
0.00938477491421341
0.00941518184530437
0.00960316936170208
0.0095004008793221
0.00931170143719063
0.0093322915862254
0.00921872675015996
0.00912244288691878
0.00928208129015194
0.00928548774470421
0.00905509398498886
0.00893665894344062
0.00900085316831884
0.00928124551302215
0.00920679899227559
0.00900448227726766
0.00891394308044507
0.00885143179585333
0.00894597265188812
0.00901447742500405
0.00886252036159276
0.00852067429137073
0.00855677791996453
0.0090305028165143
0.00929283391840413
0.00925999318488857
0.00908276141545686
0.00897618335449018
0.00898696121905199
0.00876774779183522
0.00850270523490625
0.00867575402472316
0.00877016993432695
0.00847610142979942
0.00851122170948201
0.00881714844170885
0.00891781563719857
0.00882445544745334
0.00860753918966063
0.00860830011621369
0.00874261756428891
0.0087916376033001
0.0086583190496041
0.00871170432427891
0.00866454970019204
0.00828991636834669
0.00831911896439246
0.00851096293402616
0.00835223817005412
0.00829776593179647
0.00842790506322149
0.00844649352563231
0.00820238051616349
0.00810257771353707
0.00823242802140404
0.00855433732741742
0.00870120482610094
0.00861846172476653
0.00851196874359743
0.00824231122942321
0.00810772980756999
0.00825453497794597
0.0083369939567615
0.00830365220595528
0.00823127714593946
0.00797004401380259
0.00794934481771287
0.00841674447673849
0.00851981722005026
0.00843192795247809
0.00826694951610183
0.00814685587184048
0.00824814217157445
0.00816480623785797
0.0081398814893894
0.00826738734803521
0.00808421225617344
0.00813568139720638
0.00836265629399666
0.00827420860295516
0.00816781287746698
0.00813720929458973
0.00813147335414812
0.00828766462625002
0.0084400918473053
0.0083689714855861
0.00817791814459748
0.0079489180331286
0.00780948424534587
0.00803042549753473
0.00800674438547379
0.00782384393919404
0.00785639989867282
0.00797649040338489
0.00821773028037322
0.0085458440752324
0.00860253832798234
0.00848751543590944
0.00822627359332912
0.00800521498155487
0.00805195891208805
0.00804432993616439
0.00802078936578274
0.00832312547179538
0.00849066318609716
0.00838178352897329
0.00828343769936422
0.00825689793107298
0.00810093562745616
0.00786950601454424
0.00781016614674013
0.00790697039473334
0.0078087362982553
0.00787939129209399
0.00792846592246073
0.00773521717940289
0.00787337247933882
0.00812616726620806
0.00822053726236933
0.00810097482394626
0.00783969634279589
0.00764395417612144
0.00751230226873059
0.00750399706433876
0.0073617340005549
0.00753392409426961
0.00784164364035166
0.00758261519036328
0.00740208203364028
0.00743172894285915
0.00749384160573401
0.00742455642712124
0.00729250075782222
0.00768354145474412
0.00753057018534069
0.00712102633487063
0.00734373960770909
0.00749628172712826
0.00728808318727993
0.00685271528495757
0.00706595226887209
0.00721106052743078
0.00735355926587427
0.00745028425501791
0.00744534843213883
0.00745078580032753
0.00743370324375328
0.00730061931516093
0.00709445725717625
0.00686369902466359
0.00705599971869694
0.00744577130946715
0.00733226907977779
0.00717940968844047
0.00714337178103412
0.00678524196544104
0.00652249465344057
0.00656669027076607
0.00651408702960241
0.00677181320582488
0.00691359544172471
0.00697691743348305
0.00723365017133602
0.00718101390380196
0.00676423186385981
0.00704155707868571
0.00737517426940666
0.00696519009800118
0.00683678011899173
0.00729605514721005
0.00714950039640039
0.0065934851961536
0.00647767422065742
0.00686674047160925
0.00701571824463256
0.00676967852442192
0.00672391906815176
0.00657815721686249
0.00663972482462399
0.00694801286707876
0.00692594597608756
0.00697671003163561
0.00680217346110885
0.00706251097268945
0.00699072988777347
0.00694546701202336
0.00703032324341203
0.00664038879970582
0.00649434953833208
0.00653893120187705
0.00661695635584847
0.00679911419269963
0.00677652136389949
0.00645945935926271
0.00644748242189166
0.00671685659564929
0.00714054440545562
0.00751614001846044
0.00693473874135048
0.00632148861655854
0.00633979599930981
0.00667422474003986
0.00657263782111961
0.00656708118033719
0.00671956064059737
0.00647146582584316
0.00642222870529615
0.00679760793668534
0.00713511174742055
0.00697928362346117
0.0066851763004627
0.00631430327325459
0.00586490268914964
0.00603526627722439
0.00667606516273295
0.00667071956491735
0.00624212086654329
0.00645631811643611
0.00704428121998163
0.00691939710338012
0.00648248995448963
0.00677322402883356
0.00695062179451607
0.00657144327136765
0.00614231205320497
0.00648683964690183
0.00686562014178537
0.00663693265586263
0.00638798278786226
0.00624962058896212
0.00639302109170571
0.0066717534586031
0.00632038002117499
0.00621568178239484
0.00650364586379239
0.00646582939011295
0.00640277995234198
0.00614389304943335
0.00632606683791583
0.00672375926172671
0.00671892889169017
0.00697234207438133
0.00733617882748313
0.00693110637636334
0.0065374903856779
0.00626466419262024
0.00630286940667539
0.00651017095639134
0.00629408446360179
0.00658202620921996
0.00695102169772063
0.00639930969563785
0.0053956286585331
0.00552103876322147
0.00606825273866724
0.00673891837504881
0.00703777305653003
0.00659537591367318
0.00627092847299331
0.00635416062785191
0.00663231440445087
0.00690719259204144
0.00664565822337503
0.00656634554217407
0.00674566914497327
0.00690240940244691
0.00705944378604398
0.00695949376790815
0.0067177644583711
0.00688302187605435
0.00656504845980456
0.00612433882014133
0.00660137285878607
0.00752236364967351
0.00781530173740729
0.00751850879674618
0.00734599675370369
0.00731160691013461
0.00717423087498422
0.00708837061600793
0.00739026661790677
0.00741967088495092
0.00706089325688638
0.00711598128065388
0.00700112477560319
0.00665765499430262
0.00684343020901988
0.00742482232106356
0.00709767529919475
0.00679470434429533
0.00662794774884619
0.00671641024823024
0.0071129662619319
0.00725620937198153
0.00715999150515435
0.00701275553595511
0.0070737800653361
0.00702907146248708
0.00672929267891182
0.00597712187768932
0.0060632242141425
0.00669068413418311
0.00721027126441418
0.00701575859108257
0.00564688601170716
0.00495793294075834
0.00540243376235683
0.00559936915548778
0.00553425776473039
0.00568073325888413
0.00574926181389967
0.00638938555490093
0.00634036946513055
0.00607030527630877
0.00548047671778378
0.00561721459852066
0.0056487712103029
0.00436137165563987
0.00495155952955131
0.00600634329758548
0.0045080935453829
0.00324409008474116
0.00467091263831341
0.00612813067099527
0.00508184802645606
0.00407805517916148
0.00514497219367221
0.0059335796266268
0.00541230318103216
0.00444979798825025
0.00500053765720861
0.00560229376960338
0.00606722303943391
0.00502327496838935
0.00404883683880542
0.0033359296191931
0.0024646176414961
0.00261691764061817
0.00388159981157156
0.0046724594908256
0.0043896559944918
0.00566792388462644
0.00716011836330267
0.00490163455504781
0.00340723914723394
0.00441479771063209
0.0039340237342968
0.00226114536594346
0.00178351450443635
0.0023262636223662
0.00260773538724885
0.00316909500796142
0.00392421319146846
0.00318550110152579
0.00210555194731185
0.00154012607597142
0.00154060436052148
0.00166716222694851
0.0031835400844687
0.00323540002757094
0.00219932144987661
0.0038161131713552
0.00483480984901031
0.00164016250244412
0.00114638331043799
0.00238932859335028
0.0023225967057264
0.00214887352014772
0.00247523313755015
0.00289245507146598
0.00301447164233763
0.00235775720880765
0.00204424130436199
0.00356458865529907
0.00480494848167676
0.00454983475985283
0.00423265981070532
0.00380930224448949
0.00305495825345878
0.00379427064422181
0.00520525006228738
0.00558204361169905
0.00494594072423294
0.00466325189438331
0.00430962804448865
0.00445799959683346
0.00508163366283125
0.00551720818485417
0.00563360663603912
0.00547892896993837
0.00543107535030695
0.00584629361020589
0.00576427501163591
0.00492321413161319
0.00456378626604053
0.00491993185831755
0.00487619440732602
0.00456558428335031
0.00467950122773191
0.00524996456192613
0.0049498297878587
0.004717057117253
0.00432695030887455
0.00378342599386275
0.00405332229774957
0.00462018925303065
0.00449144146422484
0.00403348246280035
0.00485709313829486
0.00621629543813036
0.00599929002362941
0.00437403936342223
0.00385643581240988
0.00345356043889773
0.00310133532451366
0.00353786596012385
0.00381321971178949
0.00379567573628017
0.00392837871725225
0.00343446442154044
0.00394451877240959
0.00535404433432982
0.00412995513051754
0.00143390978769664
0.001981907725266
0.00395561451940134
0.00386562556566538
0.00239173803230476
0.00126855778820447
0.00179551002215769
0.00345362022369183
0.00370203667376097
0.000754928827418821
-0.00123895225141267
0.000357912200578631
0.00152828606722651
0.00310681519628832
0.00532051395064202
0.0047167131752413
0.00296499656761934
0.00251206316241249
0.00394866750297472
0.00504025319890141
0.00482566753844381
0.00373052991031451
0.00248715823452207
0.00292900486298734
0.00402166209460905
0.00412173086179025
0.00382428392126517
0.00304182911678428
0.00299549926194307
0.00343651496441263
0.00354228746551403
0.00456303472095348
0.0051236330952897
0.00334714250110657
0.00234321760586018
0.00343506395064988
0.00430773462671978
0.00383173295170377
0.00321248768187394
0.00332014258063056
0.0027143364079785
0.00217591739046326
0.00220814497748634
0.00127233370340939
0.00191579431448063
0.00417565383763074
0.00498566313242149
0.00440609342712495
0.0047893760012621
0.00555790868696556
0.00482303706645212
0.0044228833840349
0.00433276451141014
0.00379558463717072
0.00412164023479297
0.00503421642654133
0.005299923202184
0.005244493642884
0.00522158510750013
0.00459761243436664
0.00405705668174506
0.00535773124197753
0.00632931363760135
0.0056750876250056
0.00543078099396043
0.00593468411701708
0.0061681830628442
0.00597515561268709
0.00554940518666316
0.00508340245349895
0.00553081807177738
0.0059790357342276
0.00573541600142461
0.00531842589696283
0.00556842657082867
0.00604124366941507
0.00582727675728934
0.00564202622279724
0.00584304793263299
0.0059693491386536
0.00576219128623097
0.00565602686722622
0.00593222010609436
0.0059909974012954
0.00593116532701851
0.00597591708776543
0.00587635078213166
0.0059185873329802
0.00606757331363872
0.00607217614829477
0.0060389029145829
0.00643909038710386
0.00692384639305638
0.00666308470535489
0.00634323261538387
0.00617981509682879
0.00566771738110325
0.00576664340857589
0.00644174954115381
0.00645826720529389
0.00609698165503661
0.00598377373863714
0.00596287360209745
0.00616493275082344
0.00635080402320232
0.0063600929138588
0.00615356527246075
0.00596491735761248
0.00604178984192585
0.00626093005736419
0.00641808810376665
0.00602334941487683
0.00587294453701851
0.0061146194601477
0.00587882606778075
0.00584763302832903
0.00589166300921916
0.00568530037241005
0.00583731204056028
0.00602613142063024
0.00601613712789396
0.00605370592168861
0.00600127715238994
0.00592500208012179
0.0061751083037956
0.00625076726978459
0.00615481512337338
0.00623691038622103
0.0060396771602463
0.00595685934693335
0.00630542258020419
0.00656687673893361
0.00656269843770242
0.00644691872703806
0.00649311097627362
0.00654014169264894
0.00622689104806475
0.006100949093318
0.00641642259905969
0.00650857642795274
0.00641200995054433
0.00644321499005626
0.00649013802590662
0.00640730935561018
0.0063167102754459
0.00643492243350666
0.00654041274478323
0.0065025996078957
0.00664599350233234
0.00665145745742711
0.00641045775706911
0.00645462540209933
0.00665818938820903
0.00661016702263172
0.00657737980966904
0.0066911137982082
0.00674092537648126
0.00698371724198936
0.00722029552523187
0.007304488152047
0.00725735672765118
0.00728787206395619
0.00748567917248524
0.00752665543427521
0.00745831756441247
0.00757607280555636
0.00793907183295697
0.00792658612958187
0.00765213962191668
0.00793638905617643
0.00810652655309445
0.00821475678838962
0.00835157810255105
0.00839018145498675
0.00853670373385773
0.00880730516544723
0.00906396513059896
0.00923744567260055
0.00936531913878082
0.00963741350324204
0.0100942118223011
0.0107170926675204
0.0111983112476822
0.0118063836446621
0.0126119034748337
0.0130539947018678
0.0135904112230311
0.0148862272744986
0.0164497343130911
0.0183469770075292
0.0204028432300878
0.0223610433987405
0.024409143901652
0.0266320696481091
0.0291881382824382
0.0322277160609423
0.0352609722816161
0.0380645909264714
0.0404580853953294
0.0425602300635417
0.0446782790672055
0.0468981545879983
0.0487812789876082
0.0499717742709445
0.0513718250650468
0.0528680546799351
0.0537558448200255
0.0545809023572904
0.0553428299619243
0.0564263391590083
0.0578027123331928
0.0567552125186562
0.0559620822012479
0.0572392566332255
0.0571537119932761
0.0553714275455743
0.0542326058783792
0.0535837164644152
0.0527983294667225
0.0521296978346249
0.0508718821246487
0.0490491030281572
0.0484662683947048
0.048281186334157
0.047444004071181
0.0464703825928229
0.0464440392939464
0.0456018496511913
0.0440036046068209
0.0433683992490176
0.0422088113043581
0.0400054631442879
0.0387341292766653
0.0376627031935624
0.0362279759670997
0.0347867829880936
0.0333555094149054
0.0317019489219556
0.0301005285137768
0.0286481157655469
0.0272240884395548
0.0262325955126492
0.0254304929758734
0.0244273716693683
0.0234675091110643
0.0225892589532395
0.0218147970215191
0.0212741911942013
0.0207924581866319
0.0201878769693636
0.0198471983426104
0.0199763072733834
0.0195319778144396
0.0185430380101571
0.0184128889226337
0.0184620370986102
0.0179755698447774
0.0176947484417209
0.0176041119060322
0.0172453161426293
0.0176694734557765
0.0181585114502616
0.0171418086263884
0.0168283463932342
0.0166023566082017
0.0165268560738743
0.0168203334435305
0.0167317312374901
0.0166601066328234
0.0165910459163212
0.0166852398464457
0.0169537808882057
0.0164277790686967
0.0156528313666356
0.0157504179847077
0.0158273949301265
0.0153945908793879
0.0151289499380389
0.0150226400489703
0.014896756712301
0.014781093690679
0.0147977779541052
0.0143068231587538
0.0139780717061031
0.0136466496802119
0.0132670666161547
0.0133635812980285
0.0133643651197114
0.0136751300560926
0.0137918897509886
0.0127046641498245
0.0122394786820684
0.0123620147064791
0.0123290356252239
0.012189599593524
0.0120117258533807
0.0117296553434988
0.0116921154180075
0.0117825453337829
0.0116351710401394
0.0115191803112452
0.0115187484639786
0.01148236049022
0.0114081174342277
0.0115267287886324
0.0116912180464399
0.0117951418316119
0.011973819460058
0.0119015067133892
0.0117116457284962
0.0118927007871435
0.0121001735996127
0.0121121106047236
0.0119493886221137
0.0120671453430738
0.0123167168876453
0.0123706434483659
0.0121246959091398
0.0122014664782073
0.0122389531904636
0.0121886210350173
0.0122005390091831
0.0123560160822332
0.0125170063632445
0.0125082443650823
0.0125138181614102
0.0126197427601762
0.0126511153126564
0.0127217915607421
0.0128980189710317
0.0128544182128007
0.0126855573639796
0.0126509049415045
0.0128581760489751
0.0128510044290778
0.0130117528332907
0.013091174179033
0.0129875152206438
0.0131354449760668
0.0131575934140172
0.0132668679240678
0.0134350805193685
0.0133228228698595
0.0132445253310211
0.0132071137457853
0.0130654317409934
0.0132062750613359
0.013222359189251
0.0131441846707677
0.0133160194663638
0.0133814057903219
0.0134161110254899
0.0135198008424401
0.0134933473439425
0.0134102230775199
0.0135183707044026
0.0135619517995314
0.0135757495827332
0.0137470249766846
0.0139376818070829
0.0140128541197716
0.0139947771842934
0.0142560225595022
0.0144454231414228
0.0144054930894097
0.0144694463138148
0.0146431097255954
0.0145039244406727
0.0141297324687837
0.0140528119269222
0.0142342956662363
0.0143665110456592
0.0143607183174014
0.0143050357123088
0.014224074275539
0.0142435086022363
0.0145650020509892
0.0149500186750482
0.0152247013179751
0.0157087473838032
0.0165764228959805
0.0175681029146576
0.0188652193297393
0.0206882593304994
0.0230807706963551
0.0264325600513834
0.0308498471494129
0.0364058770857014
0.0428334943060855
0.0492043706666017
0.0533501488067447
0.052653673157246
0.0472479236934956
0.0400215342668377
0.0331804331625814
0.0278061047342871
0.0239426295057918
0.0209975606391757
0.0186294440856219
0.0169815640920449
0.0157613344211271
0.014740397449971
0.0139965595841827
0.0134257181878735
0.01310103976447
0.0128681261507158
0.0126760209190317
0.0126070328603524
0.0123988215371671
0.0123265166472418
0.0123603656863115
0.0122296789959079
0.0120003956775541
0.0118974451252623
0.0118234410707412
0.0117670594652321
0.0117787671694077
0.0117688293259853
0.0118153961822793
0.0119389672347535
0.0119782508431542
0.011998080648437
0.0120063224177782
0.0120340746445443
0.0119863770494294
0.0119819021415682
0.0120731227065842
0.0121478262227583
0.0122083828499621
0.0122801429296057
0.0124181040238251
0.0125575800509411
0.0126927082754025
0.0126842099468731
0.0126260694598558
0.0127243578200832
0.0129281510372624
0.012995235625966
0.0129985477691435
0.0131030747968096
0.0132332177771032
0.0133297478172305
0.0135962753888864
0.0139864726507814
0.0142980687872729
0.0146296127259647
0.0150381650217625
0.0154283269875196
0.0159062606986267
0.0164682548990518
0.0169636365829774
0.017470544368203
0.0180730652409059
0.0187452433151124
0.0195104326712061
0.0202780899657099
0.0210363348369119
0.0217951418892597
0.0225309123408316
0.0232432792880784
0.0240308800845482
0.0249631294976089
0.0258360047202668
0.026718645156676
0.0277354661477743
0.0287896177159069
0.0299390594088468
0.0311481095426549
0.0322585749414622
0.033588637559082
0.0350534388119857
0.0366219727816921
0.038306775489486
0.0397348840251282
0.0405036710498792
0.0404653185724665
0.040008752627827
0.0396624952805843
0.039845964280257
0.0406688477921781
0.0418148386661272
0.0430389584761707
0.0443093011197022
0.0454998464434253
0.0467595900160373
0.048124028015485
0.0492253485877421
0.0503012610650426
0.0515018365017323
0.0527432243306095
0.053857644341369
0.0548810529201251
0.0560625114014809
0.0573394052035789
0.0583992484446748
0.059462585508806
0.0606903605522737
0.0618753722063943
0.0629840994089164
0.0640713360517247
0.0652530122751653
0.0663925324143362
0.0674481000243961
0.0682850364939524
0.0690207530451942
0.0699988312735763
0.0709886354726318
0.071838192903777
0.0728011815185843
0.0737987743000637
0.0746099839466497
0.0754227312055777
0.0763220096903685
0.0771654274464578
0.0778260758392826
0.0783215279975846
0.0790279928741757
0.0798580352554193
0.0804244388003689
0.0809596842331596
0.0816671104690813
0.0824798287620746
0.0832886159772411
0.0844181678915588
0.0858995862649003
0.0878366459237941
0.0900844859904458
0.0926266322007057
0.0951767883085118
0.0976153285260778
0.100127195193087
0.102743934252255
0.105634198670449
0.108452569025939
0.111067742696051
0.113732071686764
0.116613776688945
0.119553021298444
0.12236817468101
0.125200836637437
0.128055341200581
0.130838085408988
0.133611526337087
0.13611408446397
0.138254464127158
0.14030859845557
0.141991131200531
0.143281145718426
0.144390765641713
0.145281907438361
0.146182519858398
0.147376283188978
0.148370814754144
0.14927127777237
0.150342174116695
0.151595310514331
0.152821466452364
0.15376248363671
0.154745388403773
0.155711048365436
0.15611499731797
0.156442602136547
0.156876557213768
0.157138848391286
0.157131491282311
0.156807353159096
0.156533592415134
0.156411863719173
0.155955915778607
0.155406998129209
0.154738630997702
0.15383154168666
0.152817281833186
0.151585859573615
0.15014039472528
0.148681184167193
0.147092368544307
0.14540223046261
0.143485692493481
0.141388265175724
0.139328380467919
0.13725847468865
0.135148590326634
0.133097236139987
0.131055443530895
0.129118907686714
0.127260997129498
0.125367306480738
0.123318650988977
0.121627246603121
0.120192169174965
0.118763703929
0.117602334537166
0.116647644622843
0.115750170627742
0.114866579530533
0.113833204617811
0.112973425199012
0.112072109670525
0.111070814764764
0.110160675403067
0.109424057098034
0.108662611130336
0.108013921642391
0.107695663185843
0.107594640805963
0.107278184349115
0.107095345769277
0.10710717516652
0.107045035758877
0.106688793301395
0.105523044826633
0.103583608360913
0.101669522326206
0.0997034846719532
0.0974761489369535
0.0952718273146766
0.0931537357335372
0.0912586625542662
0.0895545073254652
0.0877183999329469
0.0859278267005757
0.084708690328908
0.0837784106907472
0.0828583346370689
0.0816759521004874
0.0805312664972771
0.0797782077125642
0.0788432785717422
0.0776786696959444
0.0763052264898323
0.0747988626602011
0.073252878678838
0.0717295920400181
0.0704637721333726
0.0689185245122405
0.0671254681360181
0.0653604199438281
0.0634973777008074
0.0617946246957686
0.0604251364774597
0.0591418854552618
0.0579787956010902
0.0567978184050632
0.0556702712026968
0.0549448709282908
0.0543861182031626
0.0533555846867401
0.0529190211135047
0.0525829494551712
0.0521220505767305
0.0520944273167504
0.0519625003185991
0.0517936265013868
0.0511195986248847
0.0502944835269856
0.0496827418335527
0.0492274013731288
0.0490596269807013
0.0486602382822813
0.0481035093289013
0.0481533047459693
0.0488633923191231
0.0505169832757736
0.0531235572098796
0.0567159770662268
0.0614459343157876
0.0669702710031875
0.0728699167674499
0.0777697602722825
0.0812857014055779
0.0836290989623928
0.0840660543453104
0.0837066351235767
0.0838395719809
0.0844856278116275
0.0853143288188177
0.0865923043606679
0.0884831032061647
0.090590212967675
0.0930066305176932
0.0949781649882405
0.0955455293167242
0.0954530063890149
0.0944939854853774
0.0929432934064402
0.0914996182442343
0.0898997597517555
0.0893570832754538
0.0888706664500502
0.0876331444697584
0.0864007779718483
0.0856628640566168
0.0846954084008727
0.0835833314477899
0.0830417203744105
0.0825823186233113
0.081462197608113
0.0804629577793124
0.0793809816402571
0.0778106233492222
0.0767678775152531
0.0762929345388273
0.0752764291658509
0.073611760107399
0.0725103775561431
0.0724274524518678
0.072134098092909
0.0716098564640931
0.0715411371401189
0.0723491867761617
0.0720745191100451
0.069714305513348
0.0687998829968213
0.0691954236370918
0.0684656386019055
0.0672168984366006
0.0662495807067738
0.0655670761516689
0.0655656134222709
0.066327424936942
0.066971952899886
0.0676783001558923
0.0694465266158873
0.0732846283770173
0.0788957658908121
0.0824959192965774
0.0803529447964311
0.0767965665252518
0.0753969672732448
0.0746765214468806
0.0735654916529458
0.0727655601115462
0.0722527141344317
0.0720760703581287
0.0712218640334892
0.0693429836334593
0.0687488151407529
0.0692809221344733
0.0697140169327609
0.0692869831282729
0.0684512595694789
0.0676872261959542
0.0653045393010469
0.0624091003426535
0.0652020490582981
0.0706437163122707
0.0699720700701272
0.0697212429204102
0.0725895917934115
