1798
3999.43349933624
650.420452594757
1
2
4
0.0186860373321088
0.0182366267005338
0.0182970871602549
0.0186947386521304
0.0181898796886798
0.0176889210588491
0.0178631249522994
0.0180905515696732
0.018347289280171
0.0183397783791936
0.0181630971728683
0.0185205366264006
0.0186826537135962
0.0181960309553819
0.0173247388723926
0.0170076746146647
0.0175878805200168
0.018259380578006
0.0184142048650084
0.0186123373852431
0.0188069759026776
0.0184202104509576
0.0180192135108585
0.0179994861095524
0.0181118470271956
0.0180188542341324
0.0178456342382873
0.0177062142474623
0.0174990250124328
0.0179000102064502
0.0183331365717211
0.0179510962220232
0.0176443117512727
0.0177613568961463
0.0179677676644318
0.0177126207880561
0.0176413037211776
0.0183179499043049
0.0180918739834861
0.0175708497827014
0.0178819165113753
0.0181797044817184
0.0182002054348069
0.0181385821124923
0.0176059513877178
0.0173769110088893
0.0176322572788856
0.0176957027994634
0.017647838796321
0.0177009837879263
0.0180964506137164
0.0181311536750311
0.0177927753591164
0.0176661503352789
0.0174259831522764
0.0172801334455125
0.0177499972726303
0.0180515202273133
0.0176033704376827
0.0175963893427296
0.0179332429479504
0.0178251403609002
0.0175472092187503
0.0177022972709845
0.0178080642943434
0.0174693122954309
0.0176790848957178
0.0180626500545455
0.0177463281495292
0.0174107789799464
0.0173779282704816
0.0175681307401773
0.017802580417875
0.0179760419566451
0.0176844826818279
0.0174558948631689
0.0175180768128109
0.0175596359614383
0.0171400481821627
0.0164912137179139
0.0164962692317975
0.0167523436593479
0.0172589658194271
0.0176721656948502
0.0174798919651993
0.0178046461442373
0.0185712425768004
0.018473515045133
0.0178327907612003
0.01684178410939
0.0161564118500642
0.0164866479166871
0.0172779311129921
0.0174393552596381
0.0173927366944144
0.0174821818936959
0.0169198554255887
0.0168020387998891
0.0170761777486479
0.0165902303293679
0.0166122027202712
0.0172954142504645
0.0178084170103359
0.0177665152799319
0.0175035617243951
0.0179672694363707
0.0184996197746485
0.017768231759632
0.0163953097945721
0.0157832089043405
0.0163822575123154
0.0172622343077689
0.0174401602074367
0.0172649401151901
0.0172968738669815
0.0174072466637134
0.0174022692214222
0.0171591161379463
0.0168964782725396
0.0170233154970865
0.0172304863298246
0.0172653312770606
0.0175190452448906
0.0175351923461985
0.017103603359917
0.016900670308776
0.0168072566785049
0.0168461256146347
0.0166841006774672
0.0169580014579616
0.0170703953210004
0.0166025454128902
0.0170101565753927
0.017845883135604
0.0177826294577669
0.0174507244405544
0.0173901982744765
0.0163553477881265
0.0158808239374546
0.0159731613467382
0.0157431672000846
0.0155884109515136
0.0158855368343786
0.0168275129543805
0.016890711723771
0.0164475637142318
0.01666088995511
0.0171596848047202
0.0172494857787626
0.0170260827041504
0.016994396600136
0.0172085961103236
0.0176315242550529
0.0183887096273844
0.0184548387249852
0.0183231185352593
0.0191270809523871
0.0201373388236834
0.0213235823653987
0.0226934136956801
0.0239917871036663
0.0246794166188903
0.0250702058179316
0.0257745520771262
0.0262673746334719
0.0260338236434187
0.0246873531010891
0.0229935326214594
0.0225017377775962
0.023034599779065
0.02350094213824
0.0237585591981952
0.0237926902713419
0.0238197719682023
0.0234291302543348
0.023921035521279
0.0244353657336011
0.0236969098959753
0.0237689966159207
0.0250812969622995
0.0258729758488416
0.0265949155702215
0.0273579928739284
0.0277809173518245
0.0286409495141517
0.0300280337695176
0.0310717622496291
0.0309566722023613
0.0309006897610093
0.0313304549680481
0.0311646174075307
0.0320417036983638
0.0331202066908348
0.0335180717289008
0.03365186310341
0.0343287752626125
0.0354452883366405
0.0364454282778469
0.036846572546694
0.0368579391948037
0.0371626192574851
0.0376599721146388
0.0387043536517521
0.0399538310061962
0.0402965694570334
0.0399699898348964
0.0393163108855921
0.0393063841202634
0.0396599966111539
0.039113594723074
0.0379946066453001
0.0380351662485504
0.0380158032430732
0.0378694973653039
0.0376297580496042
0.0375751736974712
0.0375915257275092
0.037592508056823
0.0372950556125708
0.0364863171696163
0.0362034100772047
0.0367828941061864
0.0367072985972458
0.0365166263244652
0.0360653574012181
0.0364120243706796
0.0366687239253273
0.0358509581832414
0.0352658258946519
0.0360083201513508
0.0367944378037348
0.0363340355878888
0.0351188887532463
0.0348333076232892
0.0352581768325225
0.0352472697347557
0.0352057038857886
0.0354083583924772
0.0358301797944658
0.0365403899490094
0.0356990529212653
0.0349975107811513
0.0358111923993717
0.0365785170994542
0.0357674276166954
0.0343592123730354
0.0343193160201795
0.0349030327121439
0.03506330966263
0.0354896088671277
0.0356174889712349
0.0356374876129368
0.0357885544496638
0.0361410128613755
0.0353240851588966
0.0337292969407932
0.0343628160759569
0.0345536003900433
0.0340344782910192
0.0344945569083865
0.0350012436519483
0.0356969259321567
0.0352565501770966
0.035636083272738
0.0361691104570958
0.0359431671110487
0.0353528157076679
0.034484156259089
0.034645765057229
0.0359651263053313
0.0360615684829221
0.0350999422107677
0.0351483159743127
0.0364027071557201
0.0373511328963598
0.0372182351318821
0.0367909571709105
0.0363207591784122
0.0359026798860175
0.0369521644520947
0.0376269332641364
0.0365279024324217
0.0366730047011821
0.0371985949363922
0.036777484627682
0.0371463250312217
0.0375083944152606
0.037365502257033
0.0380768693283113
0.0383315860401859
0.0368722336226489
0.0364525043657797
0.0374404780524732
0.0386323879253285
0.0386565989907897
0.0384311684521376
0.0387155739527376
0.0391608292315206
0.0387383848999704
0.0387852062407337
0.0391520395875439
0.0396571844635846
0.0403468827717795
0.0401478004149823
0.0394177760058839
0.0394977897604958
0.0397108459215777
0.0404075429333703
0.0410411480714826
0.040710433441643
0.0393770559782007
0.0400166337104027
0.0410293947910952
0.0412382073267239
0.0412192664623568
0.0413851009289646
0.0410021868488893
0.0402478272164219
0.0393415960306954
0.0402270115377438
0.0419585444918439
0.0420941446300343
0.0417921498866349
0.0417679769612161
0.0413131886358439
0.0406937004667803
0.040861492261398
0.0411014509049487
0.0415684797741093
0.0420238850047117
0.0419642912924876
0.0414000511803798
0.0414930742712565
0.0418800236904256
0.0416858897595899
0.0419862289977672
0.0417595396489553
0.041369115440497
0.0415143733939464
0.0418813894198087
0.0417923708844608
0.0406008862460955
0.04128567790764
0.0424927154913265
0.0420813332817642
0.0408774364709829
0.0401690884498309
0.0409452303383547
0.0417558239486997
0.0419221576548718
0.0418085897579715
0.0419736087406171
0.0417621768024173
0.0408154687416533
0.0409070728887368
0.0417539980089039
0.0417559520366766
0.0412114054659127
0.0411280988377782
0.0420035831773274
0.0422011220251791
0.040961946407219
0.0402122423818088
0.0413376470275137
0.0420142643989626
0.0413938994230183
0.0411520473648914
0.041199297181347
0.0410892004286076
0.0410713843127306
0.0413799630714897
0.0417050733028064
0.0412087907383728
0.0409771264892098
0.0411102514165857
0.0408329973317601
0.0404450845559371
0.0408522846935006
0.0410725191148014
0.0410650601379079
0.0411224233838419
0.0409782635694845
0.040762460974393
0.0407463112568037
0.0406026867410529
0.0409673426710855
0.0413544719810922
0.0410756424648394
0.0406932991483383
0.0404237846734027
0.0406193482171519
0.040051011368103
0.0393162430414514
0.0400231331670412
0.0406718239840657
0.0407802529897779
0.0404409826319526
0.0402028248088212
0.0401949814293985
0.0401443263614837
0.0400010810163899
0.0398403565984264
0.0400332491833095
0.0400225328854252
0.0396984202831181
0.039057958992076
0.0392527452069443
0.0401932362541439
0.0398268727389988
0.0391892346639146
0.0389964620770517
0.0391092296777969
0.039321180686814
0.0398887203117385
0.0400943692075971
0.0390806882453272
0.0386077105544297
0.0391580292893052
0.0388343602109506
0.038144340081089
0.0377658851015205
0.037847097039319
0.0379776539478815
0.0382973087641713
0.0380999889371566
0.0376417978458236
0.0379021134566739
0.0381190387991219
0.0377344828270499
0.0376095872074614
0.0379684120031099
0.0375806359873901
0.0370876566155405
0.0371482431599404
0.0368893122852176
0.0368957755820462
0.036336088677487
0.0360338388612893
0.0362285704491593
0.0364621028237275
0.0365601617825311
0.0364185497413679
0.035867839144596
0.035667489752475
0.0354654231676808
0.0355999616306108
0.0355546110844147
0.0351903911858202
0.0348833778852048
0.0347473226502862
0.0348519515124193
0.0349422557269042
0.0345939906674869
0.0345082851096291
0.0342261142868559
0.0339906085743737
0.0336665134052846
0.0338499634305857
0.0342947526807484
0.0337880154724272
0.0333603876487882
0.0333238507497101
0.0329405146827665
0.0326685029538385
0.0326393362838337
0.0324397531588374
0.0323761761459717
0.0329132306199457
0.0331573184173257
0.0326993505165706
0.0321970321888821
0.0321897724815988
0.0320442055295642
0.0318218861111291
0.0314946410106225
0.0315236126623947
0.0317471233084673
0.0314016992708201
0.0310603735837756
0.0308525443630978
0.0309440218219713
0.0310746513097585
0.030850576875732
0.0307668045203897
0.0310429890917166
0.0305699595962864
0.0303478982855074
0.0306168479741151
0.0302668189049259
0.029875890620181
0.0297705860647087
0.0296939144481249
0.0297018469176153
0.0298064606603645
0.0296805615899989
0.0292754916699063
0.0293458263504473
0.0294771791839644
0.0293302851625265
0.0292789456057462
0.028991529350591
0.0286998174757153
0.0285408231475753
0.0284011690438486
0.028402878112611
0.0284495762770119
0.0283724419652548
0.0281471897127763
0.0281058428983545
0.0283118240083628
0.0283430325400533
0.0281597092602697
0.0279151605023226
0.0277760929561171
0.0273226514904647
0.0268747545532274
0.0273663279209269
0.0273671860092897
0.0269213140420318
0.0269970576990009
0.0271493402419027
0.0267132657674368
0.0263389025520337
0.0265798408977895
0.0265177559885874
0.0259192943348573
0.0255379570730097
0.025896722753352
0.0260513153188145
0.025879387167475
0.025725744243812
0.0257184471063164
0.0257325664859023
0.0256008885337725
0.0252819731241677
0.0252360096074482
0.0251627190047932
0.0252708282924247
0.0254172698576695
0.0252461369404282
0.0248127335050847
0.024564548434595
0.0246639915377843
0.0248185418688439
0.024779854599794
0.0244721427320704
0.0241711913153027
0.024356077246797
0.0244840815100335
0.0244366642167044
0.0247939391834715
0.0249417946073313
0.0250257628091359
0.0251961967964261
0.0255038262016451
0.0258960438762629
0.0262028334940508
0.0265995977255021
0.0269665001119519
0.0272367579913421
0.0273473855340009
0.0274452920836911
0.027645967649263
0.0279561576851516
0.0283813286198948
0.0287143281494548
0.0288894566414172
0.0295448202264761
0.0310776126215757
0.0327882979950806
0.034386126105865
0.0363831783747105
0.0389026258912131
0.0418653565408295
0.0451424605281139
0.0484410261157452
0.0519205738106505
0.0558227807440632
0.0601292677399006
0.0648514732534048
0.0691975985452004
0.0723762465254642
0.074006018893049
0.0738513714997877
0.0723170621113286
0.0701146709363562
0.0675446134481042
0.0653215171063648
0.0634546611580526
0.0614438927502877
0.0596085095564362
0.058158877978574
0.0568230496374314
0.055908073768734
0.054819830458169
0.0533621511735038
0.0521809071176523
0.0509803566492318
0.0493835736181605
0.0478547208095085
0.0465488989295876
0.0451570469047027
0.0438120953639825
0.0426951226849115
0.0417305940994894
0.0404474501087404
0.0389032965140519
0.0382600665739128
0.0380439527624922
0.0376500211422846
0.0378468959698788
0.0387290122314969
0.0407847404984939
0.0443025657977906
0.048743242175674
0.0545368080213612
0.0611374118171832
0.0667410022666466
0.0699834289458581
0.0702480385534786
0.0682607557972123
0.0652494250675877
0.0616535374808708
0.0582196326276255
0.0554546364862661
0.0528126172529172
0.0504204532001233
0.0484624848056501
0.0469250101031213
0.0456235709637278
0.0443665962541264
0.0431753511960983
0.0420519925305183
0.0412672275142536
0.0407000367231123
0.039988917920624
0.0392771782835783
0.0388861519081644
0.0385908998427042
0.0379254056146128
0.0372067574029417
0.036839366360452
0.0363960400021151
0.0359137016276823
0.0355723848252933
0.0352884213469663
0.0349620694653789
0.034683253349627
0.03445873465268
0.0340927174830075
0.0337573261211003
0.0335067561519733
0.0333360688043517
0.0332008316093142
0.0328114171950212
0.0325543953446829
0.0325961446897125
0.0323690086581991
0.0319907537111995
0.0316922132619371
0.0314528026424033
0.0315058738282259
0.0315541588402044
0.0312260235656252
0.0309828767709285
0.0307323264897791
0.0306267383085762
0.030767701729879
0.0305621943612177
0.0301491282754192
0.0298767472090693
0.0298696844009123
0.0298551068186383
0.0297432092698705
0.0296133575455575
0.0293444436871881
0.0292894816388073
0.0294042505555096
0.0292853786040701
0.0291771756485338
0.0292338204151469
0.0292784371574415
0.028998718620299
0.0284809212944192
0.028343986389333
0.0285360191155812
0.0286704296038816
0.0287847703224258
0.0287688437291631
0.0285596694837389
0.0284398210763224
0.0281861830518741
0.0279084911332181
0.028133430612986
0.0282655564036882
0.0279276489928317
0.0277848626975801
0.0277522167211231
0.0276693758632889
0.0275941355102623
0.0273790343752641
0.0272105185889669
0.027454957097303
0.0276645356774771
0.027385709804409
0.0269440373109523
0.026844203929612
0.0272466750970828
0.0275009183726908
0.0273116864598414
0.0271826493465491
0.0272452381040617
0.0272863762915689
0.0269675991385762
0.0266956980762585
0.0269171373097143
0.0269345228397401
0.0268188375910684
0.0270589228920445
0.0271072024832819
0.0270929080848312
0.0273427584869869
0.0272297131163569
0.0269482422147801
0.0269014779030113
0.026914272260008
0.0268908340711646
0.0268772259575512
0.0266973691301847
0.0265074812150435
0.0266597053627695
0.0267592733953546
0.0264832629952056
0.026409522921057
0.0265614337780227
0.0265398276126128
0.0261518230096108
0.0258808027274672
0.0257496736966024
0.0256227783039064
0.0252849377953981
0.0250118013176441
0.0253581510321114
0.0255245940919399
0.025606681385041
0.0256592723354771
0.0251661619896169
0.0247619189059793
0.0251001605090982
0.0255637648997399
0.0254432721962258
0.0249956125534801
0.0246063631433307
0.0244198685370497
0.0243280457104022
0.0240786470356038
0.0240155561893912
0.0241854412046335
0.0244299969154082
0.0245140641052153
0.0243271919554099
0.0241541774417273
0.0236737450524279
0.02346054366279
0.0235542031595169
0.0236957961747695
0.0237285811127541
0.0236144849934914
0.0234125102717609
0.0231237398445234
0.0236928016869471
0.024015101503557
0.0232047121184404
0.02281740283269
0.0231975208015506
0.0232372116645385
0.0226734924355327
0.0229140002291734
0.0233488688026245
0.0229623828021777
0.0230702182231613
0.0232312412642868
0.023124298545606
0.0233115605674204
0.0229675066087206
0.022564749153478
0.0229606720974415
0.0232743439324706
0.0232593117356472
0.0229755413347925
0.022703549163456
0.0224853083509584
0.0225577236533612
0.0225089393268667
0.0224113917728878
0.0226562594033658
0.0229803905748845
0.0227586233695182
0.0223302278243305
0.022417036706055
0.022545180345954
0.0222385968979053
0.0223931181783102
0.0225890183237889
0.0221898049640048
0.0221309511155395
0.0225788109774538
0.0226329856767325
0.0223315728050876
0.0220762555075962
0.0222058475023559
0.0221049772255973
0.0221726780779025
0.0221757576182943
0.0221480501801846
0.0222985712013039
0.02225453051734
0.0223872774729164
0.0225639736438359
0.0223479019787027
0.0224701616032953
0.0228662283791003
0.0227918419573963
0.0223392210034833
0.02177966802578
0.0212957176775058
0.0213016524965502
0.021850982334108
0.0223662594947358
0.0221243910537056
0.0217546491905154
0.0218431623585702
0.0223666784850642
0.0225700006961507
0.0225712316755907
0.0225046430134842
0.0219200281752667
0.0213393572010122
0.0211521924750767
0.021404988765114
0.0216825516383042
0.021897049907546
0.0218848326378777
0.021641945378235
0.0217943336204194
0.0220409161549987
0.0218797776619287
0.0215561183787913
0.0214534712129209
0.0216097476341462
0.0218963689277821
0.0221169757112473
0.0216778697889247
0.0218000413832206
0.0220342748834592
0.0217903002690586
0.0222031752926593
0.0221853321869773
0.0217928928192421
0.0218211472064097
0.0216933933454815
0.0216511854954665
0.0215538915952429
0.0213136082277043
0.0217112349228196
0.0219292883457874
0.021611808386838
0.0215540097091304
0.0216909800371549
0.0220603784501311
0.0225874729406271
0.0226461358516426
0.0226174031759013
0.0226090921357843
0.0226120071111371
0.02256456119535
0.022030385234172
0.0215718885293508
0.0212659589362697
0.0208386558481854
0.0205627124908176
0.0209242833921397
0.0214298683771649
0.0214525807458755
0.0212554714794716
0.0214924392536344
0.0220256035388826
0.0227050579069291
0.0228212960749214
0.0228635205830001
0.0227402337796021
0.0224477412894476
0.0223090587296625
0.0222504538640447
0.0222200794649421
0.0217040741828487
0.0218654135205992
0.022761176367435
0.0230076953784507
0.0228162728417601
0.0228024286998875
0.0230318280867546
0.0228467001665933
0.0226905263439502
0.0229048793761514
0.022323407495785
0.0218659064039827
0.0219347352066443
0.0218259952706151
0.021754382980238
0.0218866067999877
0.0217445862799773
0.0218959991785746
0.0219533743891793
0.0215456812564889
0.02145470884109
0.0214427243118712
0.0211906847209738
0.0214637643376117
0.0217679339328735
0.0217009307072803
0.0219565849188103
0.0217611003012753
0.0213683229368469
0.0203002079607596
0.0197657031978354
0.0204205323071261
0.0212981918518783
0.0210216897583534
0.0196759678233282
0.0198919034082533
0.0201433278690974
0.019677550933987
0.0193574999414197
0.0190086669881719
0.0194357836226445
0.0190138961241274
0.0178922838575176
0.0180367092675935
0.0182583251729745
0.018265090136441
0.0184719341554751
0.0176902492967338
0.0168651964179592
0.0166535700600947
0.017371407214604
0.0171916443182364
0.0161571333466551
0.0172558717454995
0.0182661314941138
0.0175926818359249
0.0162251907610468
0.017141903151707
0.0175534073591108
0.0163133286649785
0.0151925277061048
0.0155731332801324
0.016584423149434
0.0175119166278922
0.0166433082525852
0.0152450024918297
0.0163291614434366
0.0159189679784213
0.0142984934295587
0.0148969904787806
0.0153248342221484
0.015081273724062
0.0147616763298506
0.0136087389081987
0.0131790740007386
0.0144868682691306
0.0145129976551418
0.0141546580888413
0.0140005054550954
0.0136408079030544
0.0132210606129417
0.0132808198809262
0.0147531804647588
0.0141278540752376
0.0135974463485769
0.0139890244090218
0.0140079837401154
0.0135873938866929
0.0133938269506642
0.0120696261225934
0.0110326753404589
0.0108550688129954
0.00917088804807982
0.00764532920075994
0.00798941069395676
0.0100084586778995
0.0119298211167586
0.0121756241085201
0.0133534121106595
0.0140960567408494
0.0139929034866603
0.0140312921524808
0.0148246857837879
0.014846492205402
0.0147208408356194
0.0143722628856024
0.0134596171324367
0.0144774161703581
0.0152550186254531
0.0162235953642734
0.0171444527577492
0.0175573332449966
0.0181020558458031
0.0184436545642024
0.0178177899982052
0.0177544315922971
0.0182274501202528
0.0187539913583736
0.0188063854994535
0.0183617177166112
0.0181275016607324
0.0184863075507108
0.0190731544540463
0.0187300770886841
0.0183361979254391
0.0180769508937793
0.0177175539512054
0.0183438221903443
0.0190557977895078
0.0186568071625405
0.0180502932754684
0.0177800683203036
0.0179621907407463
0.0184417718285619
0.0185209347879654
0.0184260518165331
0.0189810057300066
0.0176231615913941
0.0163518168214645
0.0176648000063461
0.0183407725756107
0.0179813196128987
0.0181414027100229
0.017475866251701
0.0156873403417049
0.0156949517294128
0.0168443778489373
0.0162694162184279
0.0157490988181307
0.0160769807709805
0.0156548452955784
0.0156557527299447
0.0165754201486661
0.0155958599382609
0.0140392702649168
0.014032002734274
0.0127735902995693
0.0114113568654958
0.0119478263956703
0.0115248201933071
0.010558245275337
0.0113897798818954
0.012578047628493
0.0135778347801577
0.0128684602398186
0.01246470197312
0.0123368114651343
0.0123220008043368
0.0118786269201535
0.014563312509783
0.0155083068022759
0.0135452814780244
0.0119704334876926
0.011847529861405
0.0141185046298046
0.0146835442902397
0.0144794998047823
0.0153828834273536
0.0162306239844677
0.0160315143186327
0.0158350273074118
0.015184133131866
0.014229857821329
0.0150989801009916
0.015430118428636
0.0147087087007483
0.0141700990813741
0.0141171097012323
0.0138586286948354
0.0158000528639312
0.0165058777605492
0.013480552149037
0.012113141602087
0.0130702531530662
0.0134009106467979
0.0135619752050198
0.0143172990535393
0.0159653740683338
0.0165190693397855
0.0157070558155485
0.0154061093249438
0.015761978156746
0.0154190482197126
0.0158262379503127
0.0159286613537873
0.0177005430390589
0.0188146343686513
0.0175936969544879
0.017323108593622
0.017515001089968
0.017635466375182
0.018469345874688
0.0189022090544747
0.0182775521096789
0.017978790246697
0.0184842837936248
0.0185767023629182
0.0193929629753874
0.0197672420179203
0.0196264195244543
0.0199573384810707
0.0197941765880146
0.0198589766863461
0.0205885273608683
0.020899183479493
0.0210122075115498
0.0197939270817516
0.0195025888927998
0.0195960678423875
0.0197106854506397
0.0206645449599328
0.0206814398626579
0.020529978223727
0.0213940849815472
0.0220315139922874
0.0216081870571377
0.0207873043290124
0.0208355067995592
0.0213098452667872
0.0215840622153534
0.0218240113706934
0.0221380557696801
0.0219423807315084
0.0216693478534582
0.0216551582104129
0.0215857212621728
0.0219450408603729
0.0223841617697088
0.0223006602610403
0.0216056848090073
0.0216232388304468
0.0219089642084232
0.0213485061349044
0.0211159513217429
0.0215447289824929
0.0220825282832102
0.0223241304430227
0.0217477249228936
0.0214752378209295
0.0218205555300816
0.0216445015535822
0.0215706635389846
0.0218604294915592
0.0219066347692831
0.0219703442804209
0.0217975645655803
0.0218331788033852
0.0223129101018051
0.0226946467730351
0.0225512485827554
0.0221714576286742
0.0220996931297649
0.0221714129689176
0.0221008892136774
0.0220525214864672
0.0222562933805391
0.0221364596214511
0.0220726427205246
0.0227405432235505
0.0229880457589821
0.0226672466607439
0.0226831979086693
0.0225763274092887
0.0226872619423145
0.0231066766195821
0.0232848907078847
0.0231708333394014
0.0229852379685404
0.023115112036726
0.0234581710554634
0.0232113497463589
0.0227101170082068
0.0229099281098797
0.0232125309828096
0.023331256801922
0.0235499203394998
0.0233268974435463
0.0229281295072457
0.0230993206019066
0.0236301395204443
0.0239035952915231
0.0234116271083888
0.0227652280415877
0.0227594745974498
0.0231456724023049
0.0235914184325159
0.0236310470522841
0.0234840371857725
0.023559913080462
0.0237194912883776
0.0237331259529333
0.0239355375195058
0.0241195300651184
0.0243351454686391
0.0245792156344509
0.0250110227996484
0.0257086399516705
0.0260656323962217
0.0259697768019412
0.0262658965848518
0.0269995104273516
0.0265815768104009
0.0254604599568067
0.0253580033707092
0.0257428499043733
0.0261150111557947
0.0262657423756076
0.0265574978224427
0.0271089192336687
0.0275926142843709
0.0269124849836983
0.0261806039971921
0.0260763020005916
0.0265506856706328
0.0274961974636592
0.0283389874536372
0.0284869289719041
0.0285576823483579
0.0291308619789762
0.0296750166487514
0.0294769936064877
0.0294787353529181
0.0294817558922988
0.0301357477288889
0.0311889297226033
0.0321985378005933
0.0332519113602344
0.0339615444068294
0.0336657483923818
0.0333684458511588
0.0339739726526007
0.0350329805128314
0.036054872253508
0.03625378823076
0.0367230993210774
0.0374292778596345
0.0375887382028776
0.0380043952909138
0.038974568107187
0.0396657478257334
0.0398037281594701
0.0401815209347024
0.0413490321049368
0.0430283967116041
0.0431305709857189
0.041605643406212
0.0420330302829972
0.0430629709601979
0.0430335882440736
0.0427314439062577
0.0428706605832165
0.0436327635027509
0.0447662884518705
0.0451618994755156
0.0438448722736753
0.0428262901719672
0.0429891957743481
0.0433226379005461
0.0431710100601667
0.0427084445416557
0.0420019292265859
0.041134117268247
0.0410130631749397
0.0410904515144609
0.0401636143713146
0.0391349316787758
0.0389002472971814
0.0389243534330128
0.0387934694386046
0.0384017912065567
0.0380589584592988
0.0377280393790474
0.0373351595868984
0.0369680530904306
0.0366813300756948
0.0366043705628977
0.0365464442550086
0.036313625655942
0.0359796760874097
0.0356708282472235
0.0354686887108516
0.0353435120503682
0.0352610252609133
0.0352529852653685
0.0355332854040605
0.0357400854827899
0.0344730877689442
0.0337630125499251
0.0342078837948759
0.0342900712907733
0.0336707276258322
0.0334381201473763
0.0335600612421449
0.0344286289426126
0.0356067830927734
0.034180811970911
0.0325351403413106
0.0325501514652111
0.0330746389024804
0.0331827362609336
0.0328955598122074
0.0331911035395904
0.0337990345569485
0.0340386808770654
0.0342273767200528
0.0330210776912973
0.0316866179610269
0.0317810553284082
0.0322318224984308
0.0318548378726159
0.0317047396580111
0.0317803032245502
0.0317270985705456
0.0316062808292135
0.0317460430217661
0.031190253831434
0.0303484113874976
0.0302777505568683
0.0298642986770076
0.0296657922551474
0.0298940689052092
0.0304568887243513
0.0312006536112365
0.0297088937940287
0.0280305953538337
0.0281367807063647
0.0287764366961679
0.0290982470816741
0.0287773836745844
0.0280403591014445
0.0278917727164583
0.0283923898323032
0.0282354843766077
0.0275186297070706
0.027070593489016
0.0270112937397544
0.0271092493398759
0.0271015418450252
0.0273628726712939
0.0292203012733467
0.0343351302203165
0.0413390937961069
0.0448082422406051
0.0464538451340467
0.0477953309789557
0.0485425255817599
0.0488189005287097
0.0486810556263324
0.0480697281041543
0.0464510819288468
0.0434008379528859
0.0420327893924098
0.0415512053756724
0.0411900602274343
0.0407562129340992
0.0399840781170285
0.039614478894716
0.0396265668145747
0.0397814310929166
0.0401130884060456
0.040094813981055
0.0390732386962679
0.038799781641272
0.0387336648481174
0.0383680691399445
0.0378796915991689
0.037795600749989
0.0377971040376451
0.0378107550905679
0.0382038824443746
0.0374336210350781
0.0363544999290619
0.0362715984282824
0.0364357115757263
0.0363725666365662
0.0363483443696969
0.0363761218431621
0.0361122313100196
0.0357567183655845
0.0355960043860868
0.0356437651287692
0.035218190185628
0.034937291902094
0.0345317742007423
0.0340588224372927
0.0341142008206514
0.0343636519663774
0.0342503814199614
0.0341005991078439
0.0342861694093317
0.0344910612526362
0.035009333258262
0.0354406262628813
0.035638251353256
0.0353447977259662
0.0349516398634761
0.0349558360766821
0.034979661774141
0.034871410290332
0.0349666311626535
0.0348639332248608
0.0344203630712066
0.0341563595956163
0.0340291980649093
0.0340761287977859
0.0340661846856467
0.0338896598370767
0.0336587613117571
0.0335715535202405
0.0334589678478441
0.0334283962672042
0.0335412923942906
0.0335325815984195
0.0331838560657582
0.0329178555054188
0.0328059131720025
0.0327891390560442
0.0326095982036774
0.0325440086101766
0.0326578101727517
0.0326153449150402
0.0325097739623543
0.0325757196753777
0.0327002296651816
0.0328265705298266
0.0328583510109407
0.0329156983617865
0.0329124791476397
0.0328323098331965
0.0328194219365789
0.0330494585522976
0.0332105350520225
0.0331405150929096
0.0331008516447546
0.0331140347213906
0.0331241122752252
0.0332333933294696
0.0332893618929808
0.0333255415319807
0.0333621641594811
0.0334070233003237
0.0335334332937413
0.0336031573373769
0.0336809306891287
0.0337547914414023
0.03385186614059
0.0339102806612078
0.0338532015594814
0.0339618621844354
0.0340423881951188
0.0341797460193618
0.0343893759265815
0.0345019699465475
0.0345235181003364
0.0345678491511252
0.0347340378323382
0.0348739754922103
0.0348932676896952
0.0350328305767961
0.0353736068840199
0.0356489266772499
0.0359227793406786
0.0362664229782928
0.0367162461643356
0.0371550089409438
0.0374129320585254
0.0376743847146082
0.0379536062940085
0.0381778495947234
0.0383327940686745
0.0383020881269562
0.0382605845131744
0.03846057088428
0.0385975930323431
0.0387169830594492
0.0390089170785399
0.0394235823407947
0.0398965683982086
0.0404142663404302
0.0410874672434493
0.0418800724014977
0.0426596225511739
0.0434248335556286
0.044191427580837
0.0450928197917046
0.0461009339598707
0.0470760948215963
0.0479618814059007
0.0489015607489592
0.0499286325249053
0.0508964822222464
0.0518658014580504
0.0527831508819249
0.0538437456908964
0.0549986341079859
0.0560228272827202
0.0569904543560563
0.0580245487365669
0.0590302848871495
0.060154749369328
0.0614295846016298
0.0626731248435719
0.0640962969773021
0.0656843521166488
0.0672071178441196
0.0688353681633251
0.0704582091489229
0.0715176744204662
0.0718238292225929
0.0714759704653142
0.0710752933789582
0.0714307217791699
0.0725747557199883
0.0739310086344439
0.0753400456057832
0.0766976393760987
0.0781809356506711
0.0798557609793803
0.0814696571891887
0.0830219685582634
0.084659254872413
0.086251430927056
0.0880035832907181
0.0898093008484438
0.0915215244985881
0.0931963139862015
0.0950223856966516
0.0970505955229907
0.0991441580729656
0.101317429287478
0.103562363453252
0.105909543764565
0.108142164109428
0.110054618719326
0.11194261447558
0.113677488521785
0.115173602986044
0.116908580656472
0.118730552113855
0.120400281130884
0.122234930107398
0.123934758440838
0.125488353835664
0.127171954294626
0.128864135036782
0.130388792038262
0.131903192904261
0.133442400392892
0.134941433140676
0.136222371143033
0.137421801209725
0.138863189702634
0.140133775851898
0.141297891210835
0.142612577877309
0.144160536850951
0.146100359193286
0.148150746623898
0.150362422885853
0.153043152017749
0.155851161823038
0.158722165236916
0.161960925192478
0.165243969836329
0.168747233027502
0.172332149323334
0.175993723309077
0.179808778545704
0.184072528031767
0.18864435772493
0.193352605423875
0.19818262466793
0.203259658653935
0.208392584095163
0.213358817986127
0.218140610199317
0.223091588077415
0.228034624614343
0.2326763344829
0.236714684191521
0.240281396846161
0.243340216673164
0.246154411821724
0.248915611022513
0.251523140586429
0.254029760967889
0.256594464015892
0.259012205432509
0.26157403781032
0.264131538931223
0.26675222944903
0.269187524634425
0.271298882288497
0.273330228813442
0.275347995457151
0.27679986896635
0.277659171721745
0.278670290022012
0.279604183035216
0.280017413808815
0.280636452824189
0.281037919855301
0.280990562121693
0.280762415112398
0.280413322669301
0.279665765233238
0.278586221393409
0.277312227527107
0.275867382816396
0.274042726474899
0.271925474645156
0.269421374880942
0.26669850128328
0.263720878553001
0.260562281319979
0.257100778648467
0.253826839944077
0.250512239142928
0.246999830699819
0.243662949109542
0.240543103779902
0.237380062960564
0.234376653108193
0.231558520947907
0.229026123545646
0.22695951394423
0.225082441497186
0.223402682614813
0.222006384704655
0.220497599634701
0.219202536601373
0.218011102316006
0.216672439437498
0.215166830259386
0.213848264248505
0.21258602309553
0.211477629207863
0.210912402112817
0.210714205029875
0.210976025853761
0.211516567094902
0.211940782657384
0.211972791006146
0.21088430601778
0.208820334630868
0.206043877939321
0.202725629545312
0.198982179865847
0.195158361399399
0.191282546768967
0.187287942628456
0.183116529954389
0.179471796355586
0.176367541993663
0.173677756062016
0.171280203849114
0.168973166192865
0.166767061538722
0.164703328569114
0.162996753505183
0.161490775579481
0.159452574062678
0.157349683029188
0.155356276418727
0.152750261013992
0.14965782343616
0.146388970932106
0.143297202170049
0.140197163790931
0.136884860593783
0.133837891759697
0.130838952279346
0.127659426648835
0.124735518591844
0.122192482347945
0.119627950117145
0.117300771830942
0.115671717266404
0.114112565014227
0.113367915917015
0.113332888363941
0.113235183373838
0.113811820079123
0.114424027168131
0.11524631737176
0.115567998706516
0.115489870799365
0.115042661884629
0.113967304497886
0.113171489188999
0.112711688480977
0.112081363249944
0.110737898433603
0.109687381334296
0.109591237036757
0.109532262174435
0.110386611544398
0.11258127979943
0.116436513259733
0.122182770731919
0.129212334971361
0.136265482478327
0.141148555095113
0.143760550691904
0.144338854158393
0.142676913822984
0.1404219467258
0.138814872415253
0.137401879056037
0.136354172405808
0.13635326718635
0.138393984515217
0.142134847029661
0.144594460504397
0.144651374386865
0.143574003323743
0.141448079770999
0.139060135405493
0.136662692126678
0.134005689803424
0.133101076863674
0.133240907986441
0.132615137323732
0.131938703087746
0.131135535974643
0.130390030763966
0.130094655044376
0.129985872592414
0.129466050464303
0.128672221247329
0.127207394689994
0.125377445634748
0.123803359134793
0.123500758722472
0.122143803341863
0.119811575567858
0.117701885141603
0.116668054189909
0.118897087325106
0.12237534964147
0.12331114353406
0.122360463832096
0.122421663893306
0.123628038765934
0.127058939374675
0.134460400067821
0.140107227717394
0.139660731096356
0.135701587650356
0.131180730276226
0.128176812698752
0.126662593677984
0.125856288433755
0.125821921934002
0.126878034105849
0.128996301588825
0.13184154822718
0.134580927296463
0.136680972076123
0.138263210672643
0.138964696270778
0.13814166100233
0.135886972857373
0.134017226210406
0.13281874155535
0.132724093246559
0.13223836863341
0.129982852019647
0.128015320960202
0.127849457517651
0.126842761368174
0.12793039884733
0.129571406108759
0.125681338994517
0.123137647295732
0.123914583861972
0.125260901730353
0.123993744351419
0.122026538663261
0.12294498817623
0.12418247374907
0.125369674667318
0.127226947174382
