1798
3999.43349933624
650.420452594757
1
2
4
0.0200605061068379
0.0197074901051524
0.0193528989776084
0.0198384748062012
0.0205552558702093
0.0207613570189115
0.0203442825262058
0.0200864925915265
0.020185829331801
0.02013534021386
0.020009286891094
0.0203034717348372
0.0204545543998161
0.0200017913644273
0.0197279340094268
0.0196415961574081
0.0196062963826341
0.019863743052419
0.0199104984802887
0.0197876628098541
0.0193786163209191
0.0192122328370011
0.019501441529105
0.0195188939030902
0.0193208772837041
0.0198435475816601
0.0204539347017008
0.0202894534198214
0.0203639143956919
0.0205229660386325
0.0195747455281172
0.0193751177493765
0.0198172469064444
0.0198219278480011
0.0195228339082584
0.0198863055496214
0.0204795353792555
0.020563192988977
0.0202696390286381
0.0199656604979951
0.0193863852848518
0.0191463954007453
0.0199919178250128
0.0206065739247787
0.0201171635938146
0.0194258933264856
0.0191928210830515
0.0191875680983951
0.0193035793031753
0.0197439533777753
0.0200847435098351
0.0198595246748872
0.0191607834227096
0.0188674063737232
0.018909026710549
0.0191957853053774
0.0194987205140329
0.0195609139862417
0.0194623096424405
0.0201992429126926
0.0197823571620063
0.0186478114724458
0.0188705729184996
0.0197275158452135
0.0200751776265284
0.0199619019738987
0.0196339673874106
0.0195863175237852
0.0198699185044536
0.0195753523681223
0.0193327191273671
0.0193549726649287
0.0190734754030295
0.0192981967365154
0.0193920694749443
0.0194230418081631
0.0196256819536756
0.0200986080206584
0.0198747074607731
0.0192414920049517
0.0189957481962586
0.0193147723649102
0.0192872795164369
0.0185299539171443
0.0178138581562826
0.0183147452229541
0.0190368329766728
0.0194722976192739
0.0197395273413182
0.0198673605063804
0.0192661524998594
0.018733396268627
0.0190222733664977
0.0197003087096466
0.0199792500608298
0.01971952868169
0.0191009272282828
0.0186732167277619
0.0180520956001099
0.0180258376004243
0.0183468407289147
0.0185758884542068
0.0189906561810823
0.0190781692683286
0.0192681320241776
0.0198278546541316
0.0191433537506157
0.0182146755354169
0.0182220151180076
0.0186266686801478
0.0188519961233281
0.0185856475090368
0.0185267494956433
0.018769983330676
0.0192645540361406
0.0194696603587504
0.01925236596502
0.019122162006055
0.0188056880026911
0.0189833895028858
0.0194230778866265
0.019303773387558
0.0190334433361658
0.0186804431637691
0.0183072664509736
0.0183145980981404
0.0187007550086532
0.0191344893106994
0.0191095401970452
0.0185510974000834
0.0183909960608314
0.0186326568918086
0.0186361929748052
0.018716324806146
0.0179693547099922
0.0179117776382623
0.0174342479074853
0.0171962095663837
0.0176966131068216
0.0178692744965672
0.018454106597971
0.0180799413855976
0.0179428942714886
0.018051371541136
0.0183040286169044
0.0185447070885987
0.0181546253282261
0.0175639504111119
0.0176822257866146
0.0179786117880861
0.017715955201659
0.0178990922819731
0.0184210027330564
0.0186116943882563
0.0188815486685502
0.01951165827364
0.0194217481048931
0.0188344979067355
0.0191722145504413
0.0198566704439353
0.0198095600294402
0.0203567637816001
0.0211818522978743
0.0216455338546739
0.0219563373639422
0.0221781526767578
0.0214950803175435
0.0203377567874793
0.0202543423710842
0.0203632481033594
0.0204736250312674
0.02097449325494
0.021629211228238
0.0210659812948926
0.0201586742015371
0.0209084955114035
0.0206034698198902
0.0206122931907174
0.021148750177049
0.0216227208097844
0.0221943817512738
0.0224908636180238
0.0227707107365849
0.0238090618958386
0.0242524425185891
0.0241397004109647
0.0241843836343083
0.0238107285186483
0.0234968131194603
0.0241121901898764
0.0253149290996911
0.0262080610040865
0.0264325290531127
0.0261867457211798
0.0257531725944898
0.0266182281158835
0.0273697465260068
0.0279978183395015
0.0280676295809505
0.0280314537978371
0.0278880378774419
0.0284990977660389
0.0294291112233989
0.0300250830523085
0.0302319524773983
0.0297320639735754
0.0294945694733023
0.0297352820523407
0.0304501562661823
0.0296077037058166
0.0289429327831777
0.0292327977131171
0.0287862841377201
0.0293025603824506
0.0302197109107064
0.0299484281457691
0.0292049541694104
0.0283797461977925
0.028483365692878
0.0296895754068931
0.0297579429793087
0.0288680827234932
0.0281322335219923
0.0281870257026636
0.0286971436780563
0.0286459565229551
0.0291606262091829
0.0302231511196096
0.0287581931234538
0.0280670544273036
0.0301710788068146
0.0309896732546042
0.0303008962765927
0.0291722573716173
0.0293633740028486
0.0299070930610546
0.0294261974150029
0.0284684525902331
0.029450155645671
0.0300900596833777
0.0292077741835811
0.0304250963854358
0.0304850544987054
0.029319752226957
0.02840235069878
0.0292057425764528
0.0298177495389151
0.0296213785596622
0.029436471918377
0.0299185611550004
0.0308251453296803
0.0313136766595261
0.0309202229587132
0.0301191908704311
0.0299507438249009
0.030476694758611
0.0313045987441365
0.0320132185612805
0.0321195159764051
0.0323516268478722
0.0322941428401621
0.0309190032402688
0.0305230875988279
0.0312126638810695
0.0321479476031991
0.032403578552188
0.031225936717134
0.03110154099117
0.0324422889711138
0.0327473463274993
0.0322729821111626
0.0313162629604936
0.0314426007476662
0.0327788237456714
0.0327625569858944
0.0330274263086261
0.033174439323614
0.0322776065485157
0.0321306429101754
0.0323568603111229
0.0319788212427387
0.0322524083853053
0.0338374514202967
0.0341923172917581
0.0340903633145544
0.0339641253746287
0.0340233360694093
0.0336567932153836
0.0337593731675562
0.0338326551771051
0.0327942813286804
0.0338423174863969
0.0354031005320038
0.0350421304181985
0.0343607418089828
0.0349440782721145
0.0354877753744838
0.0344541958361277
0.0340071887058031
0.0349773007189841
0.0354679249686451
0.036347445833831
0.0368334786234787
0.036424273774292
0.0357677594749508
0.0365959066820267
0.0375182481902496
0.0369921075474425
0.0370289664177332
0.0374585428718603
0.0366459290252554
0.0358419463185135
0.036014883389307
0.0371026721658654
0.0382484724915338
0.0379134502396951
0.0375936133875772
0.0378909343185494
0.0377230520318935
0.03752011550971
0.0373681915771231
0.0375504229774496
0.0381585343494361
0.0384924503033814
0.0389525289659982
0.0395635656400861
0.0393245818611187
0.0390742953078893
0.0386095167323535
0.0388666254158516
0.039054844311564
0.0385354278467802
0.0389865836653247
0.0397907254904145
0.0401002114073097
0.0400534203273558
0.0396799029096097
0.0386211307302737
0.0383741756456242
0.0397564975768788
0.0401481654330966
0.0396849185631755
0.0395556139674763
0.039847450750057
0.0400294627218934
0.0401864484620925
0.0402120738897867
0.0402818188470119
0.0401675947768958
0.0402853943757133
0.0403876444253621
0.0404036595333087
0.0400183818328127
0.0400701187113383
0.0401319472227934
0.040238465441952
0.0404912994836485
0.0401467488360309
0.039946196240569
0.0402039653729434
0.0405525959658593
0.0407979037455677
0.040882736338487
0.040865873193942
0.0408194875909072
0.0411711912245284
0.0416805956596249
0.0416258555260398
0.0414963118924834
0.0415423427901509
0.0409632979350787
0.0404929967246969
0.0407194660396143
0.0410047484709802
0.0411904234210208
0.0408527986952911
0.040808830059811
0.041156158001345
0.0412501298221152
0.0415547239411973
0.0414576369855666
0.0418570960472148
0.0420870920807959
0.0412911463871494
0.0406879563538888
0.0410742264180523
0.0415137145225884
0.0414354833435562
0.0415897506143871
0.042045355101676
0.0419395592696385
0.0412888045924381
0.0410442335757509
0.0406703056964401
0.0413917345556264
0.0422179950473906
0.0416287233489006
0.0413774297122306
0.0417803843225019
0.04149413136418
0.0411687676177824
0.0411511986383771
0.0411476848105364
0.0414063688379163
0.0416636246012357
0.0414311931154169
0.0409176330808001
0.0406368852791402
0.0406686712654966
0.0413831360685385
0.0415110005288288
0.0409130673712063
0.0406223492473378
0.0406541213800456
0.0406539763080375
0.0408083149148
0.0408580979582147
0.0406287983655716
0.0403424072147503
0.0402030067585806
0.0402880748689408
0.0405204205139446
0.0407974150733554
0.0409056898775231
0.0403777803296773
0.0398373602533641
0.0400721234148405
0.0401297748530239
0.03990007383558
0.0400971187692343
0.0399733642032687
0.039817839441767
0.0397491510827353
0.0397203485293042
0.0396497857541627
0.0395013136594491
0.0395607708903662
0.0392700574685037
0.0388775199830328
0.0392056763377056
0.0397629973578931
0.0398955915790501
0.0396041386593515
0.0390601329299446
0.0387093094484972
0.0386425803441135
0.0384107925735545
0.0382586231696657
0.0384584985866789
0.0384671245301942
0.0383387880103274
0.0383520317791018
0.0388535966346386
0.038972723188442
0.0384792138858493
0.0376518523571314
0.0374796930829152
0.037906649298384
0.0382350956288672
0.0380538563516086
0.0377544925462042
0.0375245465225776
0.0372146975838276
0.0372784910254188
0.0374472392225533
0.0372819106110809
0.0369453623897626
0.0370510688868729
0.0372442417625842
0.0370939625295788
0.0368308246282559
0.0368929569371199
0.0367958119555813
0.0366171822592528
0.0364302548495307
0.0364790004761717
0.0368710347636482
0.036935183570135
0.0366290013505496
0.0364316792089721
0.0360503560604975
0.0357012663651824
0.0355955890386274
0.0357223197663126
0.0357296301844177
0.0358855806521453
0.0360609219298097
0.0356657421541746
0.0356022894627799
0.0358921514404563
0.0356419942202361
0.0353096521638047
0.0353978249625083
0.0354556009846426
0.035247986634589
0.0349359326288025
0.0346852911082983
0.03483769702496
0.0349039371943652
0.0345830808700841
0.0345942117475311
0.0346667554282177
0.0346049449729803
0.0348732629954847
0.0350258332744627
0.0346234602405937
0.0342164864088158
0.0341628068234895
0.0343568057596364
0.0344589979264535
0.0342896995610089
0.0341635482547287
0.0338864358721885
0.0333230852671736
0.0332402072929897
0.0338346458861597
0.0340936067246382
0.0335010882596807
0.0329204881417491
0.0331325413690085
0.0334222406086078
0.0332763736024906
0.0331970332881626
0.0331572840869447
0.0327846834108851
0.0326794947827541
0.0328361063834579
0.0327301292049946
0.0326173070616865
0.0327461026991815
0.0326818461893092
0.0323129153291381
0.0323587573668847
0.0325688473727585
0.0323178152159048
0.0322669922367323
0.0322461729865868
0.0319431037696516
0.0319366771331929
0.0321128428744263
0.0320982620775255
0.0320375828476542
0.0319628519077233
0.0317804006909065
0.0317020340972961
0.0319499443201583
0.0319361626662123
0.0316742390954548
0.0320555465579895
0.0326332013435852
0.0325094233809824
0.0320264836652824
0.0320562687164551
0.032379989974182
0.0325588455708445
0.0326449595157905
0.0326204033907162
0.0325816041345681
0.0326382535715082
0.0331331794806526
0.0335146348330628
0.0332471601371275
0.0328298875297031
0.032586069332459
0.0327197577984503
0.03306881271914
0.0332600064015172
0.0332546385490425
0.03302337818933
0.0329370364433955
0.0332029942935397
0.0335733198056917
0.0339601241040965
0.0339845646277411
0.0341537206804103
0.0343005637821719
0.0340416095167317
0.0341814617901554
0.0344066582624343
0.0341367214426315
0.033882047303717
0.0338483181734619
0.0335595638071756
0.0332215563139021
0.0333635127293048
0.0334795396918051
0.0331747555133291
0.0328973692956591
0.032747935962859
0.0325120866182195
0.0323183806643927
0.0321813355622809
0.0321309216408545
0.0320708100303979
0.0320808034071266
0.0320757327640016
0.031993874781809
0.0322433615126805
0.0323700295396914
0.0320687889702187
0.0320344477389157
0.0320107580225303
0.031798029329181
0.0318942581633539
0.0318785951184647
0.0315350301482563
0.0313540263159266
0.0311972663280808
0.0311574382149466
0.0314297910781083
0.0314998744743396
0.0314143617590801
0.0315209541246333
0.0315015806568534
0.0314504856631128
0.0314601552557182
0.0314402205322104
0.0316565186614435
0.031984774244297
0.0317027706008544
0.0310213016640871
0.0306473807924341
0.0305407598790318
0.0305693423478478
0.0304826008187516
0.0302793411431601
0.0303782155725814
0.0303170172296398
0.0299583958404166
0.0299491602623806
0.0298209961455292
0.029467204354547
0.0294207255441816
0.0293713658575683
0.0291422594572217
0.029078097698934
0.0293603707969743
0.0293069775079981
0.0288564563844181
0.0287111601935512
0.0286899832208221
0.0287652642622467
0.0290110709796512
0.029082455502137
0.0288308407939845
0.028594134820583
0.0285611301303101
0.0287095481848497
0.0288135604603355
0.0286496971031185
0.0284999403801031
0.0285444281124217
0.0283030994608057
0.0281129970038358
0.0284223726649886
0.0284364042526266
0.0282024255891398
0.0281083310391506
0.0280445091527215
0.0280163515458387
0.0281057748234731
0.0281671908417131
0.0281151427049728
0.0278870632090886
0.0276526549420157
0.0277029763790483
0.0276338287704031
0.027579785192622
0.0276039385754356
0.027630844081717
0.0276362286855294
0.0276280867477731
0.0275454700312008
0.0273365881776488
0.0274170480862498
0.0276945819576665
0.0276668278075436
0.0275089461131557
0.0274339173209791
0.0272907373358179
0.027260914031583
0.0272942321273075
0.0273821163928493
0.0274430638924653
0.0272118213981786
0.0270479048680699
0.0270406397992838
0.0271243309811269
0.0272834721026469
0.0273381753245766
0.0272333570884344
0.0271075540093899
0.0271719542276283
0.0270683139750114
0.0268134082522507
0.0268188904973989
0.0269270893966659
0.0268077582527043
0.0268075006808906
0.0267441277806913
0.0265423488813844
0.0266736458299849
0.0266606303060362
0.0266201716705875
0.0267472675447419
0.0268613705806688
0.0268927601844051
0.0267161834097193
0.0265398356347207
0.0266446507087315
0.0267103398211632
0.0265531042628608
0.0263474971500893
0.0262573649694487
0.0263243785810056
0.0265620808182614
0.0266054405463236
0.0263671518180551
0.0263119227548395
0.0265089222704465
0.0266521251994024
0.0266114996902698
0.0265173230206556
0.0266199393891605
0.0267246306498403
0.0263951682530984
0.0262045596588213
0.0264642979642156
0.0265985472245763
0.026507095181059
0.0262289904058125
0.0259272839869747
0.0259102146212804
0.0261208246225091
0.0258259414136934
0.0253955492572851
0.0256397494676811
0.0257310886760039
0.0253293005752781
0.0253111251423135
0.0254707367228417
0.0255455958047158
0.0254561970797254
0.0250548021825256
0.0249539424797404
0.0251616839359112
0.0251148136172247
0.0248899273430257
0.0252171047055633
0.0253867699013083
0.0250212568269338
0.0249016353058941
0.0251943071710764
0.0250742414163687
0.0244630568917495
0.0243182775203938
0.0246729816977814
0.0244740015591013
0.024019361179192
0.02383369333533
0.0238488966673642
0.0237901388641649
0.0238976725980562
0.0240720826682647
0.0238455971927394
0.0238023252212829
0.0242564047588198
0.0241491526082497
0.0240471499748453
0.0243942743998717
0.0239731502246026
0.023129821056062
0.023261194377585
0.0237466720158754
0.0239651125060955
0.023701895904989
0.0235774357049756
0.0234246323075
0.0232607483140303
0.0230235721827634
0.0230207330031101
0.0233463687236956
0.0235224623154291
0.0232220970394161
0.0227437043782776
0.0226565460124085
0.0233354029928213
0.0238206037959161
0.0237482238147792
0.0232634130884544
0.0229026587452643
0.0226782890046109
0.022972769713599
0.0233382422489386
0.0237724291944636
0.0234859822817314
0.0226730967602158
0.0224422767040123
0.0224366708311472
0.0227035452733949
0.0228711389501466
0.0228382409262766
0.0229718759444736
0.0228967836800263
0.0226279248472105
0.0223285889874393
0.0222840606841506
0.0224283321464108
0.0226698909353006
0.0230248397542312
0.0230542781360634
0.0226323009285229
0.0226082183703557
0.0229054084717336
0.0228972089050112
0.0229279060016464
0.0227798696601073
0.022707707201866
0.0225322059039919
0.0222531460067011
0.0221653280013666
0.0220770834009329
0.0225501987700189
0.022855706121396
0.022803902002435
0.0225164976957238
0.0226018845475834
0.0230985927644729
0.023358957300916
0.0229844121816961
0.0227577771242501
0.0228321128402279
0.0226902498385471
0.0224756599276957
0.0227257812360561
0.0228310497677986
0.0227202700848985
0.0227929011131327
0.0226438568948014
0.0225772827688723
0.0228073544126194
0.022057038631307
0.0215686406270531
0.0220084478511757
0.0225081773370758
0.0221751356118746
0.021804223254875
0.0219430710185116
0.0224245872770387
0.0228780292657411
0.0226978949545929
0.0224026984239959
0.0224102129147695
0.0221056721081879
0.0219035576671934
0.0220239194489588
0.0225741546711198
0.0227227296094064
0.0222588189033694
0.0220768236935471
0.0224665436531293
0.0226401015457719
0.0223425140899614
0.0223829046979183
0.0226118853053222
0.0227506217253004
0.0227646357384959
0.0225285655412604
0.0222379533297023
0.0222477095279085
0.0223105566789371
0.0226184108478458
0.0227759969327429
0.0227152088205491
0.0223148666329585
0.0217667360071712
0.0214235059782058
0.0218691632407648
0.0224894870710339
0.0219541827716024
0.0213400867007786
0.0216351937181801
0.0217356916303455
0.0214790643041488
0.0217265949189103
0.0223126156890503
0.0228018749077381
0.0226626394992068
0.022787632828134
0.0226561596152618
0.0221774045193183
0.0218329543468084
0.0217848570640958
0.0222554490595119
0.0226895571621933
0.0227634119413148
0.022448715732318
0.0222851559173595
0.0226320282759947
0.023099001058032
0.023103897987054
0.0230478925397847
0.023096745058849
0.0229879391277049
0.0228226274430706
0.0227021096543007
0.0227695683722178
0.0228374715817345
0.02291557259945
0.0225048579807959
0.0222762006562887
0.0223925014497822
0.0225424138016315
0.0226958134253006
0.022210146087643
0.0217480797449409
0.021728575703855
0.0219014383864216
0.022462456144939
0.0226372239784062
0.022537312731234
0.0218419721594735
0.0212929541025011
0.0215457007399633
0.021197193987675
0.0203851082961292
0.0201664727954362
0.0196900849842598
0.0189473508290626
0.0194854032180151
0.020270244460824
0.019915899382809
0.0192450742509036
0.0192752513618032
0.0190074353980568
0.0188332408399636
0.018698025672727
0.0188656038920725
0.0188035883245248
0.0184869392895162
0.0184849764207903
0.0182851883059273
0.0179020171323518
0.0185403749339607
0.0194249634545395
0.0181009179934186
0.0173216656460965
0.0181399824687063
0.0182778271593364
0.0173757032766299
0.0174297446544417
0.0169674556787692
0.0158195364366971
0.0161718221527136
0.0174673779154068
0.0177137387975114
0.0169624538969905
0.0169944526628114
0.0183522567070562
0.0182355773391949
0.0170221884759539
0.0150367391716722
0.0136396031378861
0.0149123140946204
0.0162939291615355
0.015808830288764
0.0148689308051597
0.0144273197729691
0.0152744922609558
0.0149482696769851
0.0138911371554601
0.0134642225447402
0.0136615993556631
0.0141001918382031
0.01463969538161
0.0139329529211667
0.0129815975665257
0.0135376938357619
0.0134285871394022
0.0127225884404206
0.0126908961003242
0.0119992276219285
0.0128411335767832
0.0129855478459196
0.0114333240321557
0.0116948743883281
0.0135703759430012
0.0124137453103422
0.00957125764580753
0.00713589907775975
0.00819304178106936
0.0118399651035348
0.0128403911361081
0.0115523668802051
0.0119466721157906
0.0131906646878556
0.0141247671820373
0.0156067686603698
0.0152320115243318
0.0145420040852713
0.015560170737934
0.0163632739262236
0.0160305363970583
0.0161467703616145
0.0164504497073489
0.0169256118572435
0.017247658434301
0.0171832567337173
0.0169198052922241
0.0168068626122904
0.0173844593983859
0.0179016788685022
0.0181425762659285
0.0179019150201803
0.0183674789093729
0.0185397919743988
0.0179912695337794
0.0176295814841674
0.0174797003895401
0.0171941756094706
0.0170957090126448
0.0178953733059691
0.0178867800167956
0.017013129469747
0.0169857864170388
0.017154331301433
0.0172296851929939
0.0166718768828823
0.0172330770456522
0.0185990515469334
0.0183046660983743
0.0182072480446212
0.017540480161085
0.0163993523465373
0.0162771752738734
0.0162994696157103
0.016536453064972
0.0150759814172792
0.0141216275647399
0.0150401112125474
0.0158382868926362
0.0164649095821071
0.0167293956139946
0.0165069432334744
0.0163720002126209
0.0152265251962834
0.0140043197715555
0.0127599320044125
0.011522059673153
0.0108729351955165
0.01136551653124
0.0124771242254001
0.0124084165065319
0.012507405035533
0.0124824877514448
0.0129823379693366
0.0120301418133037
0.0101068057446354
0.00934495902001117
0.010094279745047
0.0111113997439711
0.0113422329058376
0.0120350005591159
0.0111461844195045
0.0102856314715182
0.0109100359939162
0.0126228389124125
0.0136213917747682
0.0123445858581278
0.0107938507122249
0.0112398731181202
0.0128964248436011
0.0127946248959405
0.0113599815094545
0.011653856517076
0.0137929761452833
0.0152005296068752
0.0149223636432766
0.0137721282180601
0.0133067173459609
0.0127724393992016
0.0122636379606159
0.0125763544417283
0.0133353179883405
0.0139853098221641
0.0127338957956331
0.0098232994256266
0.0095954206139173
0.0113470859221784
0.0113137375626593
0.0121398270935824
0.0139114968524926
0.0139468192229397
0.0139383079806879
0.0142030188121034
0.0126110146110678
0.0125060605916584
0.014040489540362
0.015219369178626
0.0154022376004411
0.0153782523065705
0.0150369519561069
0.0151601273276443
0.0159823627868316
0.0163542186987727
0.0153946546034259
0.0154655765774252
0.0170062624222175
0.0171680119451457
0.0170710319105689
0.0175179134644492
0.0178025700536965
0.0179320248729456
0.0172771089479126
0.0170593596924211
0.0174360896508059
0.0175829295400196
0.0176601153422335
0.0179334647705556
0.0175946661551147
0.0175533266700693
0.0178452151797613
0.0180576562700492
0.0187661045345933
0.0188522152985467
0.0182947301538109
0.0183394224159129
0.0185825697768816
0.0188048681147773
0.0185687036505712
0.0185424018063483
0.0192666196457788
0.0196128809140784
0.0193130430947296
0.0192306647705105
0.0189551042276465
0.018871312447411
0.019221927639617
0.019496079550188
0.0194721062230906
0.0190902183635826
0.0191218422671691
0.0191397331465051
0.0189899933440582
0.0191313840650096
0.019090246382383
0.019112303792976
0.0194927299942499
0.0201339328110286
0.0203075584059212
0.0200244637465394
0.0200060487533135
0.0202161200202301
0.0197377023886039
0.0191762303240685
0.019162053152313
0.0192150454769378
0.0192866418913231
0.0193117988516945
0.0193322514607815
0.0196761668787396
0.0198967185659664
0.0196894725017851
0.019475668406123
0.0194468020468602
0.0195551006961682
0.0196454904082924
0.0195550464906491
0.0195699366335289
0.0196449265467303
0.0194622190291308
0.0195517474106519
0.0196541515503403
0.019623567858755
0.0196596992215203
0.0196149855517947
0.0195491446942928
0.0196372650779942
0.0199300821197562
0.0201981944660494
0.0203910017361844
0.0204729665487129
0.0203691961680605
0.0202528842770199
0.0203706314923178
0.0205375680339376
0.0202503982275927
0.020106087135654
0.0202252345396925
0.0202305443767497
0.0203953551969672
0.020350949424915
0.0199464477539484
0.0202050048861843
0.0207460186133099
0.0206970927541423
0.0203515929298446
0.020402939637858
0.0203843616063706
0.0203592313960872
0.0204497575860579
0.0206264925724413
0.0209408237478237
0.0211153556855882
0.0209809770276494
0.0209772058708552
0.0211323346398652
0.021223476755816
0.0214867545148696
0.0218064028031233
0.0219505998804852
0.0218860565653281
0.0219653703121421
0.0223104045309688
0.0226552880922411
0.0227920886941863
0.0226421456797625
0.0226321724609671
0.0228128116389545
0.0230578104847429
0.0233997975949592
0.0233928408500215
0.0233243230460654
0.0235487716400284
0.0238548685000472
0.0237900212427686
0.0236488141562641
0.0236468783459546
0.0243297260528457
0.025000112240205
0.0251100137865618
0.0252620991189949
0.0257701122139754
0.0262638999700704
0.0264390409029481
0.0266194900121658
0.0273171349691555
0.0277511031679334
0.0285622584228929
0.0293748830915714
0.0302124468951075
0.0308117658827349
0.031072986670573
0.0316768773486581
0.0327519318291906
0.0336978655034199
0.0345131740052823
0.0352414333246742
0.035957869587383
0.037014014097812
0.0373744879333479
0.0375474594844948
0.0386084241397022
0.0397744978936199
0.0403894504670833
0.0409733052394249
0.0418488355345959
0.0429588233899605
0.0438394911558027
0.0431265502742664
0.0429238332807066
0.0444229207236262
0.0453319480408354
0.0450244738175071
0.0451608069515037
0.0458344860881775
0.0464084704089141
0.0469866672036641
0.0470245861711725
0.0461799867290702
0.0462626335066101
0.0464486482956858
0.0463604742190525
0.046292486522076
0.0462650778692753
0.0457125783675304
0.045289705207344
0.0457817181287491
0.0455971749988959
0.044234452535125
0.0438009196158026
0.0442710904418856
0.0443827797157691
0.0444487283809589
0.0442483825319519
0.0441151388630096
0.0439936214429177
0.0438274618402447
0.0437370721752721
0.0440249957037369
0.0440821281897418
0.0440034930827609
0.0439552380339173
0.04370169233237
0.043443151194822
0.0432379121271096
0.0430795152823725
0.0428050922389377
0.0424115494739278
0.0426827564060421
0.0426821236335271
0.041436010405026
0.0414085685656938
0.0418082127564597
0.0410752173068436
0.0405582695635252
0.0408743584315665
0.0411227513161456
0.0419109415231547
0.0423096350620811
0.0402995257814356
0.0396360170901117
0.0399066457344744
0.0399705957207416
0.0403528325156142
0.040382406259839
0.0407543566757239
0.0411050646817933
0.0412204790074413
0.0412641670145902
0.0398795157997387
0.0390379872624992
0.0396176187116077
0.0398849451163366
0.0389560802534628
0.0388373732605919
0.0392339318054101
0.0392987886241668
0.0389987640418727
0.0390275830496528
0.038627089300101
0.0382863871159173
0.0381280836912994
0.0377961534709537
0.0381138757050297
0.0382726341292154
0.0386487629688799
0.0389229233050108
0.0372500255918869
0.0364300477584121
0.0366832140493791
0.0367925256251739
0.0370050807454471
0.0365471403443805
0.0353387410053711
0.0351552544637651
0.0354872045785936
0.0349999965731093
0.034304800328786
0.0338754681034444
0.0337580319755799
0.0337819060393898
0.0337994620549029
0.0339930825556372
0.0341738798744533
0.0343123284173642
0.0341931641573775
0.0343140685311367
0.0352609354536785
0.036050329545663
0.0365317755844283
0.0365824021622339
0.0371836563343008
0.0379186681424044
0.0381674420245073
0.0372676097358211
0.0374487923598264
0.0380589602379196
0.038422686208459
0.0383369075833152
0.0382364452018081
0.0382934479118067
0.0384025354767808
0.0385974754465546
0.0389864464983614
0.0390334993611768
0.0384802445699567
0.0387030493431322
0.038993067540014
0.039275267330421
0.039579075107409
0.0399694473376992
0.0402472895717042
0.0407693545159427
0.0414304051692032
0.0410422856839475
0.0407778772360182
0.0409273750798362
0.0410129070587353
0.0408841448734017
0.0408155973653603
0.0408044230094211
0.0405505638451337
0.0401831327298411
0.0401292411768156
0.0400844040577412
0.0397158276292435
0.0396923535892422
0.0392025048797201
0.0387361514385324
0.0388514096408865
0.0390096616361222
0.0386260562197775
0.0381828132066234
0.038042325950089
0.0380396144845461
0.0380599711058901
0.0379698441876136
0.0379319500348142
0.0374903087569196
0.0370735134044329
0.0370305375342373
0.0367914710788906
0.0365039779133003
0.0365152128303661
0.0362502410920524
0.0356568521949216
0.035374852913934
0.0353003945951879
0.0351406490390518
0.0349118874066028
0.0346309470327054
0.0343580235255351
0.0342188011253962
0.0342549645387981
0.0341539668771724
0.0341420090723155
0.0341371116866111
0.0337710008944822
0.0336111201814985
0.0337008375396356
0.0337100704338473
0.0336971138857788
0.0336747261770406
0.0335223155465837
0.0333472629845236
0.0332062690144786
0.0331649591652914
0.033223155432145
0.0331104207295333
0.0328821279331863
0.0327567894048212
0.0327060481762937
0.0324738523881415
0.0322203417419736
0.0321424379941182
0.0320882229251937
0.0319380081989243
0.0317847181577952
0.0316401292277885
0.0315821779805353
0.0314939372250329
0.031400288387647
0.0313965018282205
0.0314699666940545
0.0315148942524801
0.0314404180335644
0.0313015469076298
0.03126983652223
0.0313581516759096
0.0315980287098911
0.0318271415915652
0.0318322476716951
0.0318887479562629
0.0319719202532158
0.0320254188282581
0.0321774926372488
0.0323153948399637
0.0324325998383881
0.03244667228545
0.0322941487509203
0.0323177918151693
0.0323158961613996
0.032309613303152
0.0323827217129796
0.0324128797430656
0.0324557826864027
0.0325211860965373
0.0326683779294773
0.0327479955831133
0.0328838738949459
0.0330218932450215
0.0329942071526716
0.0330090536662808
0.0332191578701852
0.033373837351463
0.0333218513310429
0.0333862873927928
0.033499982105338
0.033599208939163
0.0338057730742451
0.0339578036989164
0.034043983643482
0.0341470721044275
0.0342334529521688
0.0344116524489256
0.0346708501911874
0.0350265328510947
0.0353996992692132
0.0357625046351019
0.0360928312348435
0.0364696122943368
0.036922919395563
0.0374241276520177
0.037998023457061
0.0385694801823011
0.0390569385291366
0.0395360370441285
0.0401478838418672
0.0408618390132502
0.0416607213220432
0.0424708383054472
0.0432516480410919
0.0439325160594617
0.0446931873824291
0.0456766786954043
0.046870516445057
0.048109256958463
0.0493718928182816
0.0507069327616894
0.0522725918975201
0.0538345366106146
0.0550093651434355
0.0555021143310434
0.0552950727314875
0.0549944652627232
0.0551818728915607
0.0557806207035904
0.0566085038130786
0.0574540587192282
0.058363625046967
0.0593816710496239
0.0604186102370016
0.0614311627735131
0.0623008382232591
0.06327393663716
0.0643592709938593
0.0655474746072967
0.0668254720064779
0.0681746750523173
0.0694650592289836
0.0707765662880985
0.0721184494815838
0.0735367667391658
0.0748536174853547
0.0761643571109375
0.077528294601745
0.0789383637400468
0.0802522459220548
0.0814004818898943
0.0827062102743818
0.0838741797438118
0.0849981511770092
0.0862059884800016
0.0873276933231887
0.0884859479028912
0.0898128459854109
0.0911272086496618
0.092178204369981
0.0933297123855234
0.0944740815278599
0.0955049247249463
0.0967096939661056
0.0978748003113665
0.0987729201212155
0.09974843080399
0.100639471840001
0.101580065341528
0.102708729278957
0.103687984790869
0.10452586352253
0.105628964871783
0.106981605490879
0.108472567678882
0.110246831966464
0.112057814776543
0.114032495228492
0.116170009297662
0.118383704053481
0.120567818627326
0.122641025551877
0.124753935778271
0.126992532619137
0.129645467785949
0.132387698377507
0.134894741511708
0.137491287562782
0.1404201788156
0.143486002512095
0.146484802917437
0.14946709170057
0.152486743066452
0.155286704007092
0.157943748978724
0.160670525602788
0.163045146542474
0.164726517012387
0.166322463885206
0.167883182101334
0.16936268994437
0.170997877350859
0.172639043154008
0.174152214222505
0.175593192943373
0.177173819127128
0.178944080211807
0.180580243466649
0.182055192042433
0.183430837985351
0.184670352763582
0.185563773520134
0.1864650893052
0.187144774754455
0.187647256335298
0.1882788265983
0.188784754112274
0.189152552255004
0.189279168563068
0.189411404514399
0.18944354612841
0.189102900306157
0.188756745489687
0.188291910465882
0.187666568366195
0.186814079686974
0.185795839798119
0.184694041625769
0.183257255145897
0.181538670330907
0.179764723060814
0.17800056733295
0.176317481158982
0.174293206195102
0.172359287463755
0.170675040926474
0.168933763795935
0.166850392704124
0.164774146685108
0.163005443424978
0.161312597261544
0.159837568511865
0.158741334763849
0.157679479721741
0.156490914212365
0.155170931589511
0.153970886461338
0.153098678889795
0.152029766631056
0.150716900796764
0.149808886938938
0.148986144681407
0.148284018436683
0.147584745571136
0.147110529554496
0.14706436439499
0.147141248962338
0.147205472265008
0.147154445430009
0.146614569119918
0.145660017356467
0.144328835499717
0.142542135962053
0.140789491934562
0.138589613532593
0.136018817040447
0.13401992407268
0.132198027429826
0.130077871012784
0.127864498672384
0.125922401677575
0.124357427870283
0.123003063766799
0.121738931898607
0.120748202567823
0.11981259208069
0.119120214294134
0.118302830177358
0.116943460214704
0.115707284968103
0.114119677171723
0.111934972900193
0.109786337165038
0.107947083855887
0.105902227604495
0.103922343093802
0.102248393908983
0.10006088076848
0.097706008585935
0.0960167237275932
0.0946284062542803
0.0930603189772423
0.0916947506096002
0.090284133033373
0.0892351163679971
0.0885479510352434
0.0879952142245011
0.0876897767273205
0.0874996247410895
0.0871368935412062
0.0871963677827312
0.0872334685031346
0.0869472737010377
0.0867985719211499
0.086483033709637
0.0856773215743511
0.0850508496506236
0.0843625414604151
0.083658065940931
0.0829391640533616
0.0822856067235288
0.0822040622054489
0.082366785219819
0.0839156117070469
0.0866669783670677
0.0897637516815053
0.0940717848536242
0.0990185291178822
0.103264758356988
0.106232827027926
0.107742103144912
0.107601526682081
0.106946309461302
0.106268764141621
0.105272777803
0.104957722441882
0.105477800992939
0.106750186805746
0.108998392661911
0.11101012427963
0.111600644347623
0.111768181535397
0.111207234532815
0.110017540672674
0.109035840680676
0.107767209061267
0.10673077517504
0.106578058958357
0.106639024889044
0.106005671266923
0.105598428050708
0.105833344971772
0.105174360809368
0.103777160794253
0.103321298377126
0.103152208154583
0.103017452468108
0.102968882769963
0.102169667026216
0.1010022165195
0.10022872642944
0.0990190962852808
0.0979172266242764
0.0977056251224913
0.0975648726372651
0.0972682461062522
0.0971562633229107
0.0970729048621506
0.0965520304784286
0.0962034441097165
0.0966686582882737
0.0963733197030185
0.0949133935952295
0.0938042274373979
0.0939203877365523
0.0942880228604615
0.0940375655553126
0.0945978103839011
0.0955340763680559
0.0954315820796015
0.0945071823075185
0.0950879116943286
0.0987938991163719
0.103014775065613
0.105201143896798
0.106836626084243
0.106847458828443
0.10472040364668
0.101484221150772
0.0999287834164935
0.101559647119516
0.102041947614752
0.101103563429967
0.100335207539306
0.100662849049741
0.102576335269106
0.102580408180597
0.100640649724934
0.100204948001418
0.0998987962135992
0.0986520407688563
0.0979199579758229
0.0984399182717797
0.100871694772526
0.101234502948525
0.100434249506931
0.0990251374527819
0.0982701332935748
0.10027433212844
