1798
3999.43349933624
650.420452594757
1
2
4
0.011649265826067
0.0112550700560599
0.0113320717941484
0.0116493274255283
0.0117444501405544
0.0117037528935989
0.0117534332351802
0.0114485208913693
0.0110078800911142
0.0110813489672194
0.0114461051290149
0.011736273013914
0.0115927312770338
0.0114707121521544
0.0114740572944216
0.0114474957508228
0.0118218250777824
0.011711403916096
0.0113718895373888
0.0114755690219689
0.0112831985003144
0.0112279268271429
0.0113248297919173
0.0113162057491092
0.0113303932364339
0.0113126676297391
0.0116658169979928
0.0117234601852491
0.0114100717438546
0.0115464028796134
0.011301045918573
0.010716143773348
0.0108201533351992
0.0112511920380105
0.0116204934898032
0.0115382130157074
0.0111470132692564
0.0108366019041575
0.0110524673644042
0.0116171212470447
0.0113715569668232
0.0109522119480874
0.0112049351417378
0.0112601471782803
0.0107247511034067
0.0107875032953027
0.0114514566369807
0.0114620256265492
0.0108189109898798
0.0107863440071901
0.0114470192974469
0.0117640151400449
0.0107451221460708
0.00963202757589611
0.00993177955390617
0.0106588664230299
0.0110019467400171
0.0107011287434485
0.0102896669361577
0.0109276129296424
0.0110873784804304
0.0105595088028459
0.0106854803922085
0.0106591173769557
0.0102192454396838
0.0101342703529146
0.0101847921885294
0.0103384219588114
0.0107218052045639
0.0105943290200679
0.0101968103090736
0.0106804846462565
0.01075604039808
0.0103886281772945
0.0101874483368456
0.0101030545401649
0.0109281991565527
0.0115754457668272
0.010433579405106
0.00894308741791783
0.00918191966235798
0.0100262046826286
0.00999227319903417
0.0100032012464544
0.0107114384787236
0.0112381395004426
0.0108896634097744
0.0101003378694437
0.00993383036055198
0.00991738261186735
0.00983467390699993
0.0100564509891804
0.0100133420320401
0.0103223656571765
0.0111299767408971
0.0111162602094427
0.0101166183585704
0.00993541690687253
0.00986663173837812
0.00966543523439147
0.0101240680764655
0.0105402030007509
0.0105496758841901
0.0101523600364262
0.010572128539516
0.0114527057259056
0.0107385485938511
0.00939339256357664
0.00919974636239215
0.0100286473029062
0.0104914334322685
0.010254626625035
0.0100054432075083
0.0101900361033117
0.0103911155378117
0.0100950418595965
0.0103980702824439
0.0108509765537065
0.0102442634930129
0.0100423396598529
0.0102095509074573
0.0106044527576072
0.0107165392009927
0.0105341354151724
0.010559726757435
0.0100100525442338
0.0093813776638558
0.00997552551691165
0.0107355475032663
0.0104551063908159
0.00992243568147617
0.00995534332452924
0.00976803419375344
0.00940505729136308
0.00913690383313993
0.00950478798091044
0.00968192481737558
0.00918478020368436
0.0087975894986488
0.00909336643901289
0.00997958708136239
0.0097151238626587
0.009021513524425
0.00898921027948522
0.00932404804700013
0.00945456309646213
0.00918928475384173
0.00899497990686627
0.00914954524598197
0.00922791691554267
0.00949405124986814
0.00990509307272317
0.00997468567238815
0.00979496005843161
0.00993293555242165
0.00980663212463136
0.00937651318138581
0.00917677659006076
0.00947644197564424
0.00990288462766627
0.0100719161634513
0.0101809554329226
0.0103446024729886
0.010861202530208
0.0108209954607627
0.0112562727231059
0.0111190970199187
0.00984810130332387
0.0100690488307728
0.0102352175548621
0.010048809920512
0.0101958728156194
0.010619480528464
0.0101308841146769
0.00973384549510427
0.0104188429015421
0.0102126459897239
0.0100464025493076
0.0107233593871826
0.0113532668797933
0.0116005582304111
0.0116538975686126
0.0117596214568945
0.0116282821625876
0.0116888515814044
0.0127748526278499
0.0135342207902288
0.01337290595659
0.0130653499706006
0.0126098305789259
0.0129753400102941
0.0134395261535769
0.0138680274275015
0.0141181529512213
0.0148875691222932
0.0152526571020163
0.0152640429072739
0.0166304658236437
0.0164271179071203
0.0153924456251482
0.0153165590511807
0.0159086121847797
0.0168893842805622
0.0181807907462726
0.0185712866741174
0.0184220262000542
0.0188141841348227
0.0189194224317276
0.0186149906702274
0.0191464127784987
0.0193888048474814
0.0190980567126256
0.0197013055305407
0.0204036459534236
0.0201955970215116
0.0206057935782539
0.0216698103584689
0.0217986745712543
0.0214550000368635
0.0224552941682155
0.0231244479450948
0.0228321685268028
0.0236235299098318
0.024278541014918
0.0245784301875138
0.0253209734024591
0.025810356839511
0.0261239323907163
0.0262302632632099
0.0267722889004223
0.0277061712737426
0.0272204126310132
0.0262451774089464
0.0274982206198122
0.0287673154531504
0.0289206557311994
0.0293177923682447
0.0309355784797837
0.0314570567421733
0.0305428451710438
0.0313987688734224
0.0328471369390136
0.0322676778621248
0.0315560137849052
0.0320991936869309
0.0336173792355682
0.0344572833290515
0.035942350321224
0.0367760411644407
0.0355202642718476
0.0357197151992331
0.0365777161328327
0.0366750604159026
0.0372973844883604
0.0379610177858313
0.0377798264735385
0.0377949626828123
0.0391619977816805
0.0398549343367554
0.0396123267369547
0.0402848015442281
0.0413232606570103
0.0416083867455551
0.0419640211720846
0.0423991457170615
0.0428707334658336
0.0435872984816768
0.0435424682268225
0.0435966900278177
0.0439878521365566
0.0452466447651025
0.0459345494169165
0.0459865905750672
0.045912212360846
0.0464679596077498
0.0469395274925917
0.0473177516298871
0.0484347732675457
0.0483370930029613
0.048572253628996
0.0495528738053773
0.0502339843071311
0.0501615354569273
0.0514905610119535
0.0521792828117133
0.0510147986125162
0.0501340878994227
0.0510877536137337
0.0529670557959982
0.0539039259250362
0.053366907377634
0.0534936157125061
0.055152792918305
0.056780796898394
0.0564084146206903
0.0556243711575965
0.056346217447175
0.0561754212823067
0.0556182469887932
0.0559408522885388
0.0567393667585798
0.0575933832761613
0.0580026355368071
0.0588969469217978
0.0592660576865771
0.0586353649788335
0.0588218290255875
0.059743000853209
0.05983528172872
0.0607627178955102
0.0627228192797018
0.0625531822271628
0.0620421621064244
0.0617781018836812
0.0617173219845082
0.0625595801614801
0.0625232670852432
0.063566898050434
0.0646961574801812
0.064168328593358
0.0643206083536024
0.0652465548182197
0.0657598198712775
0.0660666576850933
0.0652884223875959
0.0654064127210602
0.0662554805495896
0.0673821915893084
0.0680569579695827
0.0673148255331841
0.0673334527718738
0.0679105788962624
0.0683556545448312
0.0684527628143271
0.0685017572851019
0.0685983692139532
0.068760367531587
0.0697957300136908
0.0705459032965162
0.0706330449485465
0.0712093497317299
0.0714062005457295
0.0712927801111726
0.0724915343248544
0.0728614697444964
0.0726882525442881
0.0732880527432769
0.0744082471037931
0.0755617403045867
0.0761239191827201
0.0759531690617662
0.0757677396612528
0.0772419897072881
0.0786493011945818
0.0786669071728648
0.0779983093393595
0.077747697484544
0.0786699791726596
0.0793916648168803
0.0795927237451432
0.0798935764366743
0.0803137707447293
0.0808961928312456
0.081802203007319
0.0822386353657401
0.0830220956354088
0.0832291636777479
0.0832724701962311
0.0841234905262988
0.084399208448724
0.0851923776429735
0.0861228368417836
0.0866384087137402
0.0869456118042896
0.0867341982375054
0.0867961348320194
0.0875559325072436
0.0878112287751144
0.0876522916879135
0.0884752822622025
0.0894688469982341
0.0900529657846047
0.090095755468154
0.089695884522284
0.0894919406715646
0.0895312735425967
0.0897270996567435
0.0900789630100629
0.0900998678815393
0.0907183499417364
0.0908561889632065
0.0901616339813414
0.0893580847050415
0.0892040253552005
0.0892638240001318
0.0891144776682527
0.088913216286276
0.0886238407522339
0.0879855148748025
0.0875785844949964
0.0869512934306174
0.0866505101314122
0.0868450368216473
0.0868839486694838
0.0858298943093473
0.0842044277821297
0.083695351079288
0.0835699829808437
0.0834817855572354
0.0836441080382454
0.0837045984089763
0.0828592984368605
0.0820616141600421
0.0813570384954088
0.0806929861422109
0.0809823703557176
0.0814647252990952
0.0812389570631531
0.080551680640203
0.0798333906265295
0.0794636497045481
0.0791343246390232
0.078776318708973
0.0788753951912869
0.0787067644082506
0.0783618251697839
0.0782079839845823
0.077590202068853
0.0765557155572626
0.0763756294829558
0.0760128854453021
0.0758288996295755
0.0759125891122435
0.0756234598640169
0.0750566476327817
0.0743224672206422
0.0741276723953062
0.0739139153657839
0.0729112368274701
0.0721522053234152
0.0714555654277128
0.0710904417924359
0.0712473887856684
0.0708844357637014
0.0706656106077423
0.0702900972168365
0.0692314420185759
0.068654744293219
0.0682567881235518
0.0680712543089409
0.0675775091365526
0.0666638032414953
0.0659601365614854
0.0655368890910576
0.0656071425238233
0.0656920688339808
0.0651529068667856
0.0643923819674069
0.0637301447240849
0.0631285160607567
0.0625771140722166
0.0620124049233947
0.0619600446288522
0.0622645541016585
0.0614383012454669
0.0607796624664662
0.0609123301451969
0.0605783649242143
0.0602580702731512
0.0600213831112303
0.0596491555776253
0.059292722026406
0.0589332253599799
0.0587619839154588
0.058597001868173
0.0584582787123079
0.0582319923846181
0.058165529762161
0.0580663673986342
0.0577962914095103
0.0570441707586707
0.0571758852822829
0.0578290272799716
0.057519133171351
0.0570982900547453
0.057176594002222
0.0574099433163737
0.057493554427294
0.0575024116629411
0.0578708133173591
0.0582048667737147
0.0581525953579263
0.0577217878607962
0.0575358951299498
0.0576363992406624
0.0575912827637183
0.0574328792772627
0.0575372641947096
0.0572480800748571
0.0572288477015138
0.0570128042280918
0.0565979777716634
0.0563003859720703
0.0558627897421358
0.0555396059595552
0.055699837542367
0.0558812664364692
0.0555883940315659
0.0548166086773996
0.0539736084946213
0.0540464822247845
0.0542022403086907
0.0535096144946984
0.0531152923438399
0.0530130407610279
0.0524097117363734
0.05177383807054
0.0518100653628535
0.051329429630053
0.0503529364494139
0.0499924997512995
0.0500230924039456
0.0499091953059737
0.049441079552319
0.0488485254595464
0.0485311877054302
0.0481516844581977
0.0479447010660006
0.0480280651176341
0.0479393845706869
0.0472651447396362
0.0466921390452768
0.0468123075061684
0.0466334333173294
0.0461164244455981
0.0460559674326557
0.045964175263804
0.0458661944448295
0.0459198928164049
0.0462407929437656
0.0466685243222947
0.0470207359256365
0.0471339301876774
0.0470364398040029
0.0473020540282314
0.04775681702906
0.0479517663978309
0.0485027480505597
0.049303461059601
0.0499824250892807
0.0507013844741793
0.0516540378546626
0.0524640133234582
0.0530366745257141
0.0536917884047983
0.0544456582020478
0.0553489933434893
0.0561449673046444
0.0565247930029167
0.057218957238213
0.0580148220736674
0.0582950571669793
0.058470043212634
0.0583645239413851
0.0581685597503988
0.0584803586668026
0.0588463416731081
0.0590497975876143
0.0593870663594206
0.0601668697816069
0.0612639532220927
0.0625791178341979
0.0634107400401426
0.0638837420697506
0.0645783292155378
0.0654855893751712
0.0664061466037928
0.0669901805364464
0.0672493012097248
0.0675003483285454
0.0675807114406405
0.0672190318570408
0.0663605433653502
0.0653244996433057
0.0640785962219715
0.0629740891266893
0.0620429496924936
0.0612157909037931
0.060671607927455
0.0597745157032886
0.058673493196677
0.0580398633169051
0.0575923563567088
0.0572396550512199
0.0570232569347097
0.0565563485955264
0.0560957776605342
0.0559513873498983
0.0556389658159854
0.0551872673489436
0.055226565807789
0.0553450644411946
0.0552574837759608
0.0554598567646109
0.0556111193696891
0.0552520881086074
0.0548483098499196
0.054534516358418
0.0540279585890166
0.0534371989496725
0.0527703245408592
0.0523256024387449
0.0523355927137875
0.0526047822515401
0.0531337987271236
0.0539609893559356
0.0546555371329327
0.0545057476949283
0.053557725283194
0.0524574225966994
0.0516305049899705
0.0508432085003836
0.049891945539999
0.0489791593652517
0.0479162639328995
0.0471137460357564
0.0466669156453781
0.0460572637456575
0.0456039875895902
0.0451826442229572
0.0444857979529847
0.0441326034644609
0.04398958194232
0.0432647534006172
0.0426687205615565
0.0425319957563665
0.0421957380067934
0.0417974701578732
0.0414903392669104
0.0410372632788347
0.0407186099382213
0.0407982075745192
0.0405705711721933
0.0401440117280475
0.0401140026212884
0.0399619069134425
0.0395884916312627
0.0393022919047766
0.0391199556002275
0.0390999297073759
0.038927171315794
0.0385381702564715
0.03825281621971
0.0381131908113622
0.0379417128950159
0.0375583193542965
0.0373803412884741
0.0375800018259856
0.0374596911962109
0.0371110982887647
0.0369686194010583
0.0368431257588841
0.0366599349463325
0.0364894557418343
0.0362418640119325
0.0358296841712283
0.0358127373307629
0.0360459363867446
0.0360229040561656
0.0358877999357652
0.0356450446868125
0.0353887518184622
0.0353436612385047
0.035249373689061
0.0349785166785721
0.0346754072402915
0.0346204399702766
0.0345832838777475
0.0346622088133667
0.0346026830653614
0.0341928364915377
0.0342246819761581
0.0343659853720252
0.0340607505078083
0.0335417711871805
0.0333003730335517
0.0332894256707608
0.0332717546701187
0.0334409646443689
0.0332039112782132
0.0328422711051903
0.0328537341898408
0.0327498950752267
0.0325550380643248
0.0325214112951567
0.0325014704753639
0.0323908025426837
0.0322953049313499
0.0321307518800832
0.0319073093562386
0.031760555946507
0.0317834878134454
0.0318895368643792
0.0316824517301656
0.0314672219769379
0.0314430021545191
0.0314031429103244
0.0312382463771578
0.0311988053576849
0.0312637428875227
0.0311995060883221
0.0310324872963775
0.0307963745733543
0.0306768292745738
0.0306813839031345
0.0307289802143621
0.0308505120877583
0.0307065416624356
0.030472417121487
0.0305815021908635
0.0306205979799707
0.0302899214603264
0.030203395523041
0.0303440714863701
0.0304315824203128
0.0302341649746584
0.0300135599065191
0.0300651814711061
0.0299570904709218
0.0297932848205034
0.0295440855965383
0.0293252776580629
0.029389510449516
0.0290868522632976
0.0285612083068173
0.0286856652461684
0.0289229196058918
0.0288445746797606
0.0282239445146005
0.0277567535351393
0.028231859703498
0.0287786537768187
0.0286333443147744
0.0282938278230715
0.0277805677767827
0.0274206551406961
0.0273388361678787
0.0270528044699633
0.0271591475269196
0.0270812649374018
0.0267754040352814
0.0269300348252688
0.0267425858383248
0.0262886117154105
0.026186991154011
0.0259278890035191
0.0257637470134521
0.0260240386086749
0.0254849914439207
0.0250463938155482
0.0253989812896107
0.0252801224281229
0.0249952229579254
0.0252648657606325
0.0255712337005289
0.025660357226218
0.0252975885311616
0.0246767199806916
0.024560539361664
0.02451259856755
0.0245080301454672
0.0248064525101996
0.0245722034120001
0.0242382725323514
0.0241153242689649
0.0240426484617363
0.0242206451694946
0.0242763881870177
0.0245083743914564
0.0239297537509916
0.0233968495700908
0.0230779628944776
0.0230525820462999
0.0237367993650114
0.0237436875167802
0.0235635907278471
0.0240582133149747
0.0242245461610597
0.0237535787029912
0.0231774842801794
0.0234183006489049
0.023507435398876
0.0229339806313342
0.0226334192116471
0.0225731824883626
0.0225937260452546
0.0226494088990585
0.0229569875596303
0.0232197480273807
0.0228355011550322
0.0226328597142649
0.0221713707436524
0.0221079519034011
0.0226617533718804
0.0227610436188432
0.0226595886718395
0.0225380806457886
0.0223765671822824
0.0225451778255628
0.0225406310790606
0.0225441818395872
0.0223921403267344
0.0222089014689914
0.0218825964866816
0.0217426512876737
0.0217113283520054
0.0217787267470382
0.0217549157347841
0.021889303353641
0.0221236085674587
0.021348712459508
0.0205085287273366
0.0210655243670315
0.0218017791164564
0.0219772269118968
0.0220476829019958
0.0217323272419896
0.0214009279551328
0.0217668094431261
0.0217447731980577
0.0211766941633736
0.0212201972649653
0.0213549990412208
0.0210155606499464
0.0207051874262339
0.0208786253075964
0.0214459829166233
0.0216238795917229
0.0211880064567781
0.0205669177779735
0.0203556587123738
0.0205722337119303
0.0203529602848904
0.0201182736434221
0.0200733505684962
0.0203398590598414
0.0206236739888636
0.0206961611636686
0.020377512864357
0.0199672974428626
0.0199894893792529
0.0202384229122495
0.020377417952706
0.0201929002482973
0.0202467300878276
0.0201144583250327
0.0200721600015207
0.0203049678398009
0.0204543090823328
0.0205018577624639
0.0203133881490923
0.0201373970124564
0.0203083707187918
0.0200963647861498
0.0196300952262136
0.0195682994492905
0.0199839476071149
0.0204456241988957
0.0205913157087475
0.020465025637888
0.0204561493384597
0.0203752420516791
0.0204740670072834
0.0202426658857727
0.0194783085010852
0.0192095329245887
0.0197006282631431
0.0201749704807867
0.0198311730558771
0.0190392693057248
0.0183150052465211
0.0180863673371778
0.0186756098440924
0.0188756881922434
0.0186579178716783
0.0187604913528159
0.0195616309592474
0.0199532316700959
0.0199323400593064
0.0201669201740787
0.0203916457608016
0.019834158418322
0.018986606145187
0.0188139064012116
0.0194024520540866
0.0200002499007727
0.0198050546900748
0.0194285623635979
0.0196407317830801
0.020101739560694
0.0204647137953411
0.0202637911658162
0.0202405415900144
0.020254738455718
0.0199035822835389
0.0195897794026104
0.0194011971308319
0.0192676055434356
0.0197190201047162
0.0197856630118974
0.0197131150475069
0.0192519153583111
0.0185756371383084
0.018437339563203
0.0186459814740778
0.0185593885302563
0.0187414625770064
0.0191298877410359
0.0194184514780256
0.0191764625947504
0.0185649142439672
0.0178915517333171
0.0183118497544677
0.0185396926501635
0.0177630141835555
0.0180089597512381
0.0182512759249799
0.0176029740860275
0.0169733127653311
0.0163188199096759
0.0161852214390458
0.0164068324729572
0.016189068297472
0.0159044567609387
0.01619912916773
0.0170471268325869
0.0169798278023387
0.0160040963345129
0.0158590106821022
0.0156476799788376
0.01560235441729
0.015039812269847
0.0148515900615523
0.0151352644653438
0.0146897071878859
0.0145016694515557
0.0146679725258088
0.0148935593747103
0.0142767838120542
0.0136862410998359
0.0135316490436087
0.0128465026005309
0.0131838216486482
0.013612258993952
0.0139067042116763
0.013365981175842
0.0119834481465997
0.0124188392330755
0.0142097765113374
0.0130570547198431
0.012076056352235
0.0126379422160152
0.0139354409002395
0.0146137199238233
0.0133693204865424
0.0115469562689316
0.00960519790293568
0.010276193860591
0.0129298655836302
0.0126817446315706
0.0106998076284655
0.0110609004096163
0.0121490491412008
0.0111008353824957
0.0115915378050864
0.0107447837611597
0.00893051783541607
0.0087814162109169
0.00809473822598417
0.00718876085811487
0.00850426474012199
0.00979476221491787
0.00966260095277963
0.00838008618315438
0.00878620887883652
0.00871637149325683
0.00809906081225674
0.00766177982440372
0.0074978653487217
0.00767506814481051
0.00912367968995124
0.00885582067313982
0.00825243022299904
0.0100074552926192
0.00952364065550083
0.00851786691748624
0.0101699219163152
0.0115620735004484
0.012322884882654
0.0131248418302677
0.0128876368453025
0.0118047415687806
0.0127183521984896
0.0130425242096028
0.0133340850057391
0.0140326707195209
0.0142329483163404
0.0133141378904656
0.0136191271981937
0.0149882120564842
0.0156101992206638
0.0155244441109586
0.0152548965013834
0.0151172471049957
0.0149727196268283
0.0143562927908329
0.0146759604579827
0.0150239333427718
0.0150119260821428
0.014668521897189
0.014764288847694
0.014628215628998
0.0142260947960641
0.0139825612205509
0.0139956641808172
0.0139767938031522
0.0141637720362594
0.0147619187301009
0.014965373733887
0.0149198028687484
0.0148651883344297
0.0141453110658113
0.0133200161624691
0.0142833852782098
0.0148295487072555
0.0138290182518001
0.0128615756598585
0.0131026536298718
0.0127295225074895
0.0123394877560238
0.0129533026440113
0.013692129888006
0.0128985191687784
0.011395560744237
0.0112553202007866
0.0113134997883093
0.0106427407411399
0.0115473550886364
0.0119854331561393
0.00978747218430167
0.00991442312848466
0.00963277080480934
0.00806669584894025
0.0071234626720628
0.00693932703938587
0.00754310266991051
0.00719887203240033
0.00692525049121102
0.00974221566012255
0.00926341269303631
0.00892907160855741
0.00943950802030314
0.00719648120912574
0.00544642233822207
0.00537154959050346
0.00695607772861939
0.00784821319098137
0.00710273655278929
0.00726877614774763
0.00832158898391851
0.00953819569329896
0.008542262521985
0.00943768411450489
0.00993589881143297
0.00861454133021488
0.0100029723406163
0.012032179111294
0.0108634275103882
0.00920983571075559
0.0102665315006604
0.0104913085032675
0.0091302199462086
0.00933041516872884
0.00864049145487337
0.00785607859099772
0.00840789683593901
0.00892251697567289
0.00856573403280804
0.00859415969981001
0.00844401024811661
0.00773572412187356
0.00671694995058551
0.00673960757344265
0.00704508910263079
0.00820644270322917
0.00860784383974773
0.00907211666303128
0.00914100915432037
0.00911752730541174
0.00924862887968243
0.0104545210916247
0.0116843217016053
0.011837419828589
0.0117686930446991
0.0119561747025896
0.0116462994598818
0.0116660349409594
0.0117778447515851
0.0121705207292334
0.0121253237119544
0.0117064599545669
0.0112157258005397
0.0114894195522192
0.0121870415938354
0.012441009843504
0.0124164055742807
0.0123878827955374
0.0120947513309718
0.0117655786491027
0.0123055588378913
0.0127818236427008
0.0124406610050098
0.0128847059021313
0.0134055200329477
0.0133187281277836
0.0131303096176024
0.0134475485064557
0.0133294256275863
0.0126498875477445
0.012314212245316
0.0128209313547777
0.0133651318074723
0.0134571354537213
0.0135739896451782
0.0136916876982356
0.0136553906821677
0.0132846631832796
0.012536720495424
0.0126527854726363
0.0134434522472393
0.0139405589127688
0.0140772110333224
0.0142379442063386
0.0140200116299905
0.013407730109573
0.0131513204637334
0.0132638795229368
0.0134168665873188
0.0137019742809476
0.0137159689339526
0.0136338121742145
0.0136615829807832
0.0136101723501138
0.0135063223930512
0.0139277576099327
0.0141994707353759
0.0136534409092589
0.0132754888519092
0.0134373776104411
0.0134792590098086
0.0135263350148631
0.013394574148435
0.0134336274880956
0.0136026377634326
0.0136022797976316
0.0137779588618787
0.0139301704717418
0.0134794156996852
0.0131723199384178
0.0135159802035818
0.0137151823856841
0.0134837805168267
0.0134790729990453
0.0135722496103543
0.0137809706345019
0.0139129029518854
0.0138443031589238
0.0139468331994484
0.0140310668127683
0.0138535833451239
0.0137650403395498
0.0137354866125464
0.0138473415318258
0.0141553009109062
0.0140903755152559
0.0136836404539893
0.0136706152666082
0.0138080884880383
0.01395458826855
0.0141229349769049
0.0141302263883581
0.0139635045235428
0.013903024953084
0.0141025209929424
0.0144398844490795
0.014256510073596
0.0139122292522882
0.0138141107335426
0.0138017667324805
0.0140113835766355
0.0142108550403463
0.0140518856598238
0.0142886778258501
0.0144638438677312
0.0143517544056954
0.0147308983847298
0.0151980834469275
0.0152740371486306
0.0151421255184443
0.0152437482674372
0.015619421877542
0.0161140595819269
0.0166004161597831
0.0167667187844915
0.0173237602589815
0.0177452531248226
0.0172701557698132
0.0174589589845313
0.0180347874421133
0.018286650915985
0.0186151382214411
0.018810347971122
0.0190478433383675
0.0197031177007146
0.0198410236011435
0.0195832955031094
0.0200085517198184
0.0208425850166438
0.0219503205052595
0.0231562979960401
0.024417624614653
0.0258541419993287
0.027912845665175
0.0299477227592557
0.0322940749625656
0.0351681106906061
0.0379797859695919
0.0417854196400157
0.0459333853346887
0.049434932500676
0.0532185824234888
0.0570215556360105
0.0590789294289397
0.0618164581277884
0.0666801246984278
0.0719724772988314
0.0769036677792114
0.080778997217881
0.0851173755462581
0.0903425762239954
0.0943830657281031
0.098980554245554
0.105300768774976
0.110902636276984
0.114961095768509
0.11963596438058
0.1255162914378
0.132230130556097
0.13750803238596
0.134942605456552
0.135605669910019
0.14299183005549
0.146125517097649
0.144658775603463
0.146335267440485
0.149623745944536
0.1526516065873
0.156058016914172
0.155828052647137
0.151308713851954
0.151339449736901
0.153311498651267
0.152481626975414
0.149643924464443
0.147425773964301
0.142707996447328
0.137055608273181
0.135608266544081
0.133042310942925
0.124603045606415
0.118941489475646
0.116141436413722
0.112373496588716
0.107998493225044
0.103993811611091
0.100793052216413
0.097471735479339
0.0942198575048579
0.0918405521822701
0.0901160114032604
0.0882252781549925
0.0863703608271683
0.0849338331777897
0.0837687541956516
0.0828713172128973
0.0825710980075549
0.0824344501792177
0.0824760019818207
0.0829236765477286
0.0846017203876546
0.0853665589664303
0.084317337058126
0.0861196954739648
0.0891616050530904
0.0903502776811428
0.091952906592518
0.0946162716200388
0.097602421127658
0.102318055071163
0.105305116416208
0.102856188471191
0.105606423458967
0.110405851337666
0.114559161782614
0.118435804833365
0.121747013039355
0.126059063791102
0.129900782498321
0.132539003024456
0.133797449193263
0.129350443174498
0.128524647715957
0.132965469547712
0.134246423453665
0.131761322633795
0.13230757395272
0.133289328001374
0.13199772624275
0.130871610014873
0.131079193696459
0.12742327565798
0.12561220818022
0.125439466415463
0.123690364270223
0.123479046526704
0.122820647234506
0.123427195423362
0.12320526232869
0.112163127346043
0.104687541178824
0.104517101042176
0.104794017384283
0.103554605318383
0.099070837928978
0.0933589933874381
0.0919986188728834
0.0917196572567579
0.0875649775475127
0.0826553771144248
0.0793814177486555
0.0780157676768838
0.0768738151565502
0.0756024466109077
0.075785138516812
0.0764972446596778
0.0771431438308769
0.0768492725730846
0.0767589210684824
0.0797507134564217
0.0831697321101
0.0843673422565107
0.0841131166896306
0.0861324551554086
0.0897081224449425
0.0905816220191957
0.0874489129361147
0.0881333574044374
0.0899691241882624
0.091250263018563
0.0915005077806137
0.0904547336591773
0.0900262811041061
0.0897571773303062
0.0897880364069877
0.0909814150751846
0.0898225154523796
0.0855517426876993
0.0845592985783072
0.084740469731834
0.084027938375921
0.0830790364882029
0.0830292293772596
0.083046141335135
0.0838608923069609
0.0851319448352518
0.0834628786756211
0.0825066837913551
0.0837095030986935
0.084977376604819
0.0857282170719734
0.0863980679128333
0.0875749903606681
0.0883905514206029
0.0888653339557459
0.090433986482374
0.0915467383309286
0.0915362098707606
0.0922438973655084
0.0916932427209986
0.0915030031245136
0.0930022898072641
0.0940095666514426
0.0932034484849665
0.0926884639834951
0.0928941649078711
0.092887460163563
0.0927253941603774
0.0923087536048452
0.0917498951524946
0.0899590242221222
0.0885803514631187
0.08819875421869
0.0872495313404703
0.0863380157459809
0.0858195946807447
0.0839630803943427
0.0818474615563312
0.0809726937334039
0.080675909260888
0.0803457848985385
0.0800635623348532
0.0800680374441547
0.0802100730236852
0.0803861114739718
0.0806490983054936
0.081133120893101
0.0818546061676813
0.0818038907251707
0.0808375450890785
0.0802637708971959
0.0800709353227359
0.0798736742704329
0.0795189803595709
0.0791301372803443
0.0787934179696203
0.0786140912281724
0.0785768799840137
0.0787862524110209
0.079029118053688
0.0791108804091893
0.0793788115353997
0.0795631518396455
0.0794562381660219
0.0793796670112626
0.0794688795334982
0.0794631814348939
0.0793583780676883
0.0792883251679445
0.0791514484332651
0.0788579165477171
0.0786673965275188
0.0785521063478749
0.07844942133
0.0783868915308007
0.0783293110766409
0.078207508385586
0.0780897562785922
0.0781102948832014
0.0781867270111645
0.0781883161591167
0.0779166407441766
0.0776941185187057
0.0775320147897733
0.0774337171717299
0.0774148851760299
0.0775366715908154
0.0778211361452117
0.07791909246245
0.0781593274131438
0.0787462607212905
0.0793363227488387
0.0799274547459793
0.0805902002002165
0.0813932775592072
0.0822528117637505
0.0832002792090908
0.0844521650228865
0.0857495914544893
0.0869449900747421
0.0881730742271505
0.0893295229731802
0.090460726533478
0.0913167621328356
0.0919881754967649
0.0926062102512386
0.0928648741774824
0.0927932423804667
0.0926459604232303
0.0921169036603629
0.0913638414273324
0.0905189989691768
0.0894954353337141
0.0883142265661989
0.0871286760637409
0.0860506077357502
0.0850347571202028
0.0839703042369955
0.0830344832914743
0.0823934361977193
0.081926021707075
0.0812712539862934
0.0803753607448993
0.0793626690708722
0.0782726992265821
0.0770780944505449
0.0758489498484272
0.0747295082760907
0.073622915920327
0.0725578881336463
0.0715956633453115
0.070886353914763
0.0702748487390385
0.0698930731602215
0.0701297085448618
0.0708291595989611
0.0718308066192224
0.0731034235858016
0.0745194682607779
0.0760483464966809
0.0776851561825883
0.0794403237885144
0.0812820137888322
0.0832640941152833
0.0853186154980839
0.0871995329648402
0.0889619421975243
0.090759006009192
0.0925068863381949
0.0938522262014685
0.0947909178566433
0.0952784221061053
0.0954328431485287
0.0955955390932924
0.0956210473470496
0.0953868016940096
0.0952532286967931
0.0953108892130937
0.0956276774504516
0.0961773003739582
0.0968798081173429
0.0977930674859279
0.0988205897178869
0.0999476666156655
0.10102192225689
0.101798827874847
0.102722517649915
0.103622152676732
0.104246018589692
0.104838990267949
0.105482283587576
0.106045883268368
0.106829753594709
0.107822274214687
0.108854171734142
0.110161280142238
0.111694103575644
0.113281362217276
0.115024745432025
0.117125563487749
0.119350569951185
0.121628502931916
0.124235105813182
0.127193237983158
0.13043906817638
0.133779194079144
0.137023981013251
0.140226858508621
0.143131133588861
0.145290347875096
0.146592343374981
0.147222978215814
0.147591690595964
0.147891725875264
0.14841984494027
0.149055311920972
0.149920135706115
0.151363030590069
0.153007150813413
0.154532762504059
0.156004452657936
0.157290966515057
0.158655884326533
0.160063760171346
0.161404529299944
0.162586829054863
0.163937345329772
0.165480980803585
0.167043540154904
0.168653045187874
0.170124638647841
0.171448323896231
0.172566116819086
0.173544667119206
0.174526962387345
0.175204557066911
0.175656271723426
0.175798995857029
0.175573363970791
0.174983569777372
0.173880352002833
0.172312214496973
0.170495504180432
0.168138800427114
0.165435178885625
0.162530335933279
0.159733598876575
0.157119323729938
0.154658303976664
0.152608642264256
0.150715732414976
0.148859448903018
0.147183494069829
0.145252029123359
0.142992216366135
0.140730050007301
0.138477590715772
0.136285257172104
0.134239385378836
0.131993896854546
0.129653080445908
0.127661807868962
0.125911578488312
0.124105732460094
0.122662179512248
0.121560594013118
0.12029081848228
0.119001355415215
0.117689108299686
0.116072242290454
0.114192411731857
0.112159790888054
0.10985923917757
0.107437309029582
0.105079897176494
0.102827256734741
0.100584319903853
0.0985145569529694
0.0970706352337384
0.0959056186697102
0.0950128241449071
0.0943113161801792
0.0937465195809421
0.0932995181753887
0.092962297748628
0.0926812851360588
0.0926528902702502
0.0924317626262992
0.0917986646183832
0.091338676258021
0.0909362385097264
0.090274756220433
0.089727740315233
0.0893724574787739
0.0888674511443561
0.0882886924691928
0.0876283484796763
0.087083107465733
0.0865591821478945
0.0856910894875191
0.0848451777098755
0.0839077788505928
0.0828983593648432
0.0823843249667121
0.0819644765528149
0.0814457399389501
0.0810249199944332
0.0804502172811658
0.0796627542944438
0.0793941581138516
0.0792898554688715
0.078759942591182
0.0783111325538178
0.0780195158899723
0.0779839157089804
0.0781112584950455
0.0781800870813018
0.0782430663098786
0.0780440149847875
0.0779416771221969
0.0774486202304732
0.076450012333948
0.075782750107252
0.0755626868520965
0.0752827555027802
0.0751414132950695
0.0747618886949277
0.0744055267063623
0.074471372388924
0.0744433230977341
0.0741389371623889
0.0743983791956627
0.0744595902474784
0.0742317548195632
0.0741364315037674
0.074581165377904
0.075547437152456
0.0759646194129418
0.0756922815218603
0.0762087107117545
0.0774117162042699
0.0781873297106678
0.0786396504794532
0.0790199878571206
0.0792184015169388
0.0796104963555097
0.0793183660776127
0.0795659295106011
0.0804111954611361
0.0808302550077952
0.0813322605511002
0.0822957171762266
0.0830546361807346
0.0837365020597221
0.0848403969811321
0.0864676390461682
0.0876794792918925
0.0885473556317394
0.0899873448908745
0.0913745001490343
0.0917754535385941
0.0915639888028617
0.0918834271064421
0.0927969761709538
0.0936320485047063
0.0943609865781355
0.0949173200311873
0.0955117020485822
0.0967846839604889
0.0982564032458554
0.0991121894885868
0.0993640720984981
0.0996936526830513
0.100174936720213
0.100294041327769
0.101065774010744
0.101864045782593
0.101762445119428
0.101344360934455
0.101521682159008
0.102366686206749
0.103087133357391
0.103304804129532
0.103144022621247
0.10328652629909
0.103539402279732
0.10371052787922
0.104090292584584
0.10537464651587
0.10682224319296
0.106474781218434
0.105598104220519
0.105822376687028
0.106381777783264
0.106232858502728
0.106393812436657
0.107255047884162
0.108160344863447
0.108397591194087
0.109078647108285
0.110853390696806
0.112094379942524
0.1123634628311
0.112702101195594
0.113684136434219
0.115212952341624
0.116164880742733
0.117427101019566
0.119297286446033
0.120750978730627
0.122410116758583
0.12382314212458
0.125104948393202
0.127528077959706
0.129753228508497
0.130680808654227
0.130582785841284
0.129871320474695
0.128865816099867
0.129172341790679
0.129998663669324
0.129693393324494
0.129468573867352
0.130381010081279
0.131576067054186
0.132456411140071
0.133515215488439
0.135376804956447
0.136368111180502
0.133091357925641
0.134765604520433
0.13951051090196
0.142433417109823
0.144481455454574
0.14239272682699
0.139807384519087
0.139436589376171
0.141182497029584
0.143819294915368
