1798
3999.43349933624
650.420452594757
1
2
4
0.00106707649843758
0.00152144879859486
0.00157539779391081
0.0015615454238425
0.00217145352084627
0.00202754370791757
0.00198699727655627
0.00218052621797028
0.00181997373778463
0.00134552780090424
0.00125020990785713
0.00148140554472563
0.00164511017228399
0.0016882509259104
0.00160489083083613
0.00170543786235263
0.00220266994899405
0.00190134875766243
0.00103352433558274
0.00108409950351214
0.00148097390058569
0.00158100038925562
0.00149869705607916
0.00134944867384397
0.00118853346511895
0.00142252410639747
0.00194395178894059
0.00222765076712562
0.00201902673120546
0.00150762094865093
0.00129450557631165
0.00109863984260819
0.000815828084937013
0.00107558008900855
0.00153638457373958
0.00198758567966252
0.00198094438955617
0.00188335942727317
0.00178105372819443
0.00144581632377712
0.00129978104145048
0.00155287845438903
0.00154089478286596
0.00164736421069526
0.00181784400388922
0.00184641732634719
0.00188159881477699
0.00141532241683887
0.00109718812084434
0.00127006509391204
0.00151865730540107
0.00171557419067524
0.00176617310599833
0.00204071752896071
0.00200069412114938
0.00141202519643926
0.00106814043677521
0.00153381808044616
0.00165822494917244
0.00143940329261957
0.00110349957936821
0.000839952997488627
0.00159023343152621
0.00227569370442902
0.00187029190275127
0.00136628758370432
0.00101650879895248
0.00107536177954082
0.00104995653175179
0.00107599851250412
0.00101092165681499
0.00111171768140843
0.00174960886082751
0.00223754888809649
0.00199817222883931
0.00146889757101149
0.000815215664578248
0.00083266219911462
0.00182241171818583
0.00212719807422813
0.00227632907330447
0.00225743151737668
0.00218279518048005
0.00202083196942679
0.00165093156201062
0.00147215672013151
0.00165621382814451
0.00172646913447355
0.00175584504088286
0.00191456631929856
0.00139261381861966
0.000592445689131906
0.000807757157914149
0.00118447572228493
0.000755799614875243
0.00113732681519965
0.0016781206813045
0.00141304254556767
0.00154729871856258
0.00211856589049105
0.00198571847838187
0.0011566318301159
0.000623800760351412
0.000894496915204344
0.00092491369485167
0.00091778265097809
0.00136004870626179
0.0017467512110362
0.00169694502699944
0.00190150037747592
0.00176424701274909
0.00167576651260042
0.00153266873841098
0.00143386821996214
0.00145976597268632
0.00150889582477177
0.00140754953005715
0.00120872306541796
0.00132392332673161
0.00121306094327274
0.00153053108267422
0.00207170731937284
0.00184068021847103
0.00124528859718077
0.00110267667324803
0.00152989279567894
0.00197055773517218
0.00163418418333827
0.00113459163855419
0.00122762049253908
0.00108878738777242
0.00110222353095513
0.00115390399032615
0.00106550596115001
0.00101097472799095
0.000357275965902527
-0.000567181044035671
0.000464630685386732
0.00205120526272603
0.00215650802352204
0.0014273691233696
0.00147230560416826
0.00219698365723176
0.00248316293914674
0.00209325369752674
0.00168839794829953
0.00111809105134504
0.00108858286627037
0.00109934879560367
0.00133395281930302
0.00168119507232562
0.00149132691292607
0.00104768886094347
0.00101528696831805
0.00105776235108835
0.00156999863434537
0.00154958043263756
0.00133946537545252
0.00180538316567956
0.00176731624670959
0.00185073125899918
0.00241585585233987
0.00265264800969916
0.00237162699077015
0.00130006385290578
-3.42897719330183E-05
0.000639045536656814
0.00192053496327854
0.00222838026814146
0.00262770405682043
0.0026511778846431
0.00261452973022036
0.00218654512768507
0.00216998210474313
0.00179510236173896
0.00121832061778815
0.00180660599334063
0.00270492556771007
0.00333427500264567
0.00284944508604159
0.00197051021806235
0.0018551771401898
0.00187672830959385
0.00222559981064976
0.00256027716368734
0.00220932794016223
0.00198178302077835
0.00247087180242788
0.00274142094271219
0.00271034765598454
0.00298721743319912
0.00288502076180126
0.00283697939467502
0.00227376625557872
0.00203228825586996
0.00245665826080695
0.0026907808557883
0.00231202627836711
0.00268218209294695
0.00331816440103291
0.00302752137334506
0.00295307743225281
0.00324772132346536
0.00341897969511212
0.00294554096902759
0.00328912917695997
0.00386073457803932
0.00319779903615215
0.00268389680850939
0.00278949056720352
0.00338634814880886
0.00366272068075406
0.0038418701487989
0.00352297571238632
0.00357905797123733
0.00273265101471427
0.00288570285105489
0.00401088351019842
0.00345640968479676
0.00232789722156164
0.00354816066508067
0.00469719961101634
0.00407003164506861
0.00367800975473572
0.00368858004090622
0.00360723605507035
0.00400371179737448
0.00428185427582746
0.00375343927804708
0.00341913008959535
0.00342839867601169
0.00296413711746423
0.00269049499055398
0.00320166917758845
0.00325364059753109
0.00345109285955028
0.00354073861381294
0.00330039019171868
0.00326403989613403
0.0021034335461853
0.00251596498971656
0.00397163096735775
0.00361308358465867
0.00319031854169447
0.00329671732748183
0.00269975497009441
0.00284397973935308
0.00345112522229556
0.00334012611972363
0.00381196522682863
0.00345449778484406
0.00272325870583675
0.003676538811524
0.00448063453559717
0.00334516522375964
0.00343157574063068
0.00400974125195143
0.00353846653376761
0.00386692560590904
0.00389372042560115
0.00321986408382386
0.00363557232735391
0.00453040707753889
0.00455563979619687
0.00384567801348556
0.00494115731713885
0.00516720379495571
0.0036673281775426
0.00281184938432739
0.00336296655312239
0.00412732062667244
0.00380628699224436
0.00379618350529939
0.00410187782522089
0.00467109736374086
0.00471329689633018
0.00457595018017633
0.00457573012138372
0.00428480856005196
0.0047669940001072
0.00533194618706923
0.00533264417742705
0.00527098273103235
0.00418828095650866
0.00350885812680983
0.00384762989448803
0.00392457740334545
0.00426911803087945
0.00501254284318802
0.0046842793957629
0.00460146289146625
0.00544447817446076
0.00614333086381071
0.00601145339110543
0.0055046706018266
0.00474376788629188
0.0034542667009368
0.00409803944321543
0.00523063813768821
0.00518195558233566
0.00539420447205432
0.00527357298069251
0.00601204717501865
0.00640190601425995
0.00548317183334451
0.0062092186752738
0.00687621957094249
0.0051720010079039
0.00401243291591083
0.00376328506074421
0.00471454150978183
0.00619058376796299
0.0055492291346139
0.00434693278119049
0.00499869976438535
0.00555337349312741
0.00575562772689118
0.00554919095282271
0.00514412503490621
0.00506886877813422
0.00568046644465744
0.00593859208125254
0.00593249257316074
0.00616290535718888
0.00589457437075467
0.00529810489795148
0.00575917672174178
0.00565289527111518
0.00492768744121341
0.00551291456265907
0.00562192367040343
0.00530754569119489
0.00502902194704204
0.00493236584665465
0.00509886887250843
0.00538163733108133
0.00575625658841802
0.0061830425814311
0.00582787705797461
0.00592260709816301
0.00641258994283587
0.00677770609999132
0.00597694697882117
0.00501793116332763
0.0054486880931345
0.00617536159290909
0.00701363854935241
0.00672643730249759
0.00582248443028133
0.00585490673586466
0.00560277553782431
0.00529983212924014
0.00562739579143408
0.00641861794884986
0.00649267676463342
0.0059953217333671
0.00581008331484556
0.0060051305848454
0.00591844859905201
0.0059695508188979
0.00628607471993143
0.00638646296216089
0.0065071106054487
0.0062537338208098
0.00599317414185323
0.00581135424667134
0.00597009901721185
0.0059783907063922
0.00583156177908381
0.00625251591261783
0.00662207725706584
0.00627464182760708
0.0061003292222288
0.00624280352980238
0.00610241401162765
0.00623705980612724
0.00659937012567273
0.00679943568965043
0.00685960798538585
0.00618138132507461
0.00567976376256529
0.00595877694604228
0.00644558447990707
0.00691963786185833
0.00669135022143815
0.00654222785097932
0.00625712819639241
0.00620120105915685
0.00624089212237709
0.00585316980436863
0.00576322942663883
0.00572417007933146
0.0057332948122583
0.00611088598142609
0.00639236549885526
0.00656260700788892
0.0064648495939061
0.00616648679107313
0.00577225436565214
0.00593220070956679
0.00650576244422651
0.00677551043034589
0.00680910697700401
0.00619456304820072
0.00627431401405615
0.00678056088861401
0.00622852481039572
0.00596814912643615
0.00614006436972664
0.0061034914289566
0.0062305938328414
0.00677596617935774
0.00667151591364712
0.00569473844471191
0.00575385846551258
0.00645994113416123
0.00634881465393951
0.00624777609753507
0.00632235021686416
0.00597017282328191
0.00589616517013386
0.00622312682054811
0.0063716311714935
0.00650986346551561
0.00649696140492311
0.00588605408255196
0.00589242986524791
0.00631729805822207
0.00616846245779378
0.00604203109149688
0.0064664098492003
0.00664850483359035
0.00622417465162722
0.00586327855183743
0.00580114085943653
0.00613523782025429
0.00579785264287478
0.00540648851984902
0.00583780995302736
0.00614911262145919
0.00615426748022532
0.00640014614257146
0.00621321476757298
0.00595693911224294
0.0061950129884858
0.00612621356747514
0.00580750452739244
0.00612771785131257
0.0060593422669251
0.00579460532888441
0.00592351555629888
0.00583129848526519
0.00568318171422829
0.00587956287002241
0.00600446638715784
0.00577392777718629
0.00549651332423297
0.00564095379051937
0.00595240659736487
0.00592468465427552
0.00567427911232683
0.00563095297292039
0.00542519350468622
0.00513157755124942
0.00529791101664322
0.00569715291703697
0.00589014837788145
0.00615038543954396
0.00610427832749857
0.00572461967863367
0.00519161319955817
0.00493825893530972
0.00515025718948281
0.00533069982799844
0.00540204532664457
0.00543579069450081
0.00570540375766151
0.00573320098187629
0.00551593083468887
0.00531206583476129
0.00522334797153266
0.00525897815850751
0.00527233274792034
0.00535414377304172
0.00539567524120685
0.0051851267148021
0.00548120794761821
0.00572274760401956
0.00527754954123311
0.00537631541002281
0.00572143195388306
0.00577714539117318
0.00561631122098454
0.00518448161667923
0.00497010857353446
0.00539321213441272
0.00575803016007845
0.0052340438005284
0.00496862236299884
0.0052442176340685
0.00537815494147847
0.00548940233380193
0.00549874195856167
0.00523085659038831
0.00519090313282459
0.00542125554217859
0.00532094406118482
0.00515262331052021
0.00505193704263768
0.00466440688480789
0.00456777358816667
0.00492290027454448
0.00504054094424357
0.00473209020602304
0.00452391216866695
0.00489074266169323
0.00538493555738476
0.00532545272655847
0.0050627502670982
0.00502565233212399
0.00467541482581981
0.00435815685914329
0.00459199669854519
0.00467592270423932
0.00456182420229377
0.00458160789198281
0.00490442247540185
0.00522291494746253
0.00496360452892848
0.00457367238747836
0.00462766964408311
0.0048576646312124
0.00503865844930196
0.00494318652602803
0.00465415524596923
0.00454493015386814
0.00469377478837578
0.00484949349008682
0.00478421950942949
0.00475833280391268
0.0048342470708543
0.00473562403068446
0.00483173552733512
0.00479594532919149
0.00461033499321395
0.00475083722129184
0.00468174022581364
0.00438938030964337
0.00429979738462037
0.00453944964877228
0.0049231723336635
0.00501919640206823
0.00489859263903487
0.00494474043066215
0.00495646416259143
0.0048259626607395
0.00486749376360847
0.00485902071438943
0.004772848610785
0.00464246457104944
0.00453025325408178
0.00471716569118976
0.00492136604210716
0.00484683372013168
0.00481995922480048
0.00503908784042583
0.00511930926441184
0.00500457117452612
0.00508775316042696
0.00513101560606338
0.00511827444584871
0.0049967883211377
0.00486749886874556
0.00506297504168447
0.00510129268200797
0.00504180115167388
0.00528615979524567
0.00563147616770058
0.00577302097610403
0.00549947345674965
0.00554980232434712
0.00559671362433192
0.00516482149728014
0.00525016655819044
0.00552029947835076
0.00521102944725351
0.00514024803101979
0.00530159893501919
0.00545396729409181
0.00573079445095984
0.00556718496036862
0.00506637607515357
0.00483642924793629
0.00488226049022578
0.00515652461233028
0.00529838499604603
0.00518740200502681
0.00509532714900332
0.00514648655794818
0.00506805553676737
0.00489777002004996
0.00489261436338441
0.00494633800699654
0.00511319995962245
0.00510363717226664
0.00497293223940949
0.00502433130792284
0.00496050208658686
0.00501736312386368
0.00521375260519583
0.00534321133427361
0.00512738316475214
0.00490345807886872
0.00504936571527893
0.00514808237013251
0.00504964477861615
0.00491780632746913
0.0047817727145782
0.00476972535268005
0.0049232944036095
0.00512556513971404
0.00489519389096172
0.00466798498771039
0.00467274766382998
0.00468682153268601
0.00468211292025871
0.0045786846123933
0.00471159219525461
0.00475607830146461
0.00445224527729848
0.00442671055822903
0.0044989478990029
0.00456279669177203
0.00453324455145659
0.00424758137726212
0.00416031671363141
0.00438576270151307
0.00451123368458652
0.00433515440089362
0.00426685097084176
0.00445758029091001
0.00436027869379382
0.00426820822340817
0.00437263735849817
0.00412282765494803
0.00389939249692499
0.00388228705910902
0.0041059560844375
0.00421142929100128
0.00412693292073775
0.00413585522617839
0.00407399940989602
0.00406005881759128
0.00417778152026104
0.00434221167250748
0.00429176181057061
0.00422644736416898
0.00407702038043705
0.00396520731931444
0.00412496464216729
0.00410515097780443
0.00399379501722938
0.00403923015062864
0.00411271042794865
0.00416284637122395
0.00414801489710914
0.00412570269842111
0.00404562724039125
0.00388148634869622
0.0036912991778107
0.00391238837080641
0.00407545721329475
0.00399204106993765
0.00400795970671515
0.00396253468119821
0.00393752362522652
0.00385882252665656
0.00385354438519132
0.00409468587136678
0.0039939796985769
0.00393048738334627
0.00407907645440669
0.00405985106629825
0.00383386254952777
0.00363938563598623
0.00327844372515817
0.00321936180826916
0.00372194340199887
0.00422052220366291
0.00429390690872676
0.0041054635507431
0.00392323361788809
0.00387176084178547
0.00367583240474147
0.00355843622009398
0.00365884195906874
0.00372885983988051
0.00383417057719819
0.00388477124497065
0.00381835271126095
0.00359702899949777
0.00330118356775284
0.0034945345037388
0.00377563485024509
0.00384264857532126
0.00354798707892286
0.0032730428671214
0.0034292524902333
0.00365706755954824
0.00370933961784347
0.00377304347873798
0.00373284966749281
0.0037733258415178
0.0038552128046914
0.00366643152047424
0.00350391266149498
0.00354813187550172
0.00341544039127233
0.00328810400123764
0.00332430021252998
0.00381092423478456
0.00407413464780815
0.00388932199378672
0.00375037925533836
0.00347676380092385
0.00327465199399512
0.00374766781322476
0.00396402203115877
0.00360373001489286
0.00355116579973414
0.00363993546593922
0.0037521163605016
0.0038369589256486
0.00356756130931403
0.00342166114325062
0.00357266600196666
0.00383438668538558
0.0038354670288281
0.00353219971588726
0.00318219427540377
0.00359621735503903
0.00399226012926357
0.00375900361129198
0.00341486959188087
0.00343081927278527
0.00339168647387836
0.00326555054653138
0.00297558232409145
0.00296616352296103
0.0033802508916633
0.00333809671306242
0.00327820070911752
0.00323279691196166
0.00319194285658608
0.00321294942905138
0.00319968358396503
0.00320611677717048
0.00315454933236257
0.00342186827449042
0.0032485626785766
0.00303040258910706
0.0033986659406036
0.00284715350791667
0.00248228466399125
0.00306373195513834
0.00325508072846114
0.00295562659220018
0.00293395184048695
0.00302629956116132
0.0031760665003048
0.00315072499157835
0.00299023003655258
0.00318125529642176
0.0031820854449956
0.00288834149668
0.00282426744689952
0.00308780560431197
0.00318696703710992
0.00296762475650223
0.00290908127996309
0.00250990599909499
0.00225431942620169
0.00255040226318597
0.00287470767012676
0.00311436212461276
0.00319733115650085
0.00338708674594006
0.00294468075169306
0.00316840813891082
0.00350492589316782
0.00271426015279101
0.00241041633826409
0.003048463739492
0.00314387493519594
0.00310290487819123
0.00298811174805303
0.00287066944084131
0.00296385489200957
0.00334041997753432
0.00327666933567732
0.00247119550123481
0.00247681804302667
0.00289625511833121
0.00288421735692113
0.00289284954047986
0.00330932577554219
0.00366215173778996
0.00371986065558459
0.00309548517504073
0.00241238818666729
0.00277970851119606
0.00302263207219669
0.0027881538399337
0.00270718169168988
0.00263037880516599
0.00277159409953496
0.00319491782429958
0.00315735750968545
0.00282003156884723
0.00233473590208862
0.00213546140356619
0.00255905287239782
0.00265399549110602
0.00252453557037726
0.00276762630336691
0.0031725154006728
0.00297375338987145
0.00260051569445068
0.00276215514590095
0.00283473841190175
0.00293614593161167
0.00304960742349795
0.00308440125501932
0.0027960012685593
0.0027314371885967
0.00282584519874936
0.00250257231262688
0.00288762926480616
0.00321319750084026
0.00314037727171319
0.00303846760659191
0.0026242885322577
0.00252164485205922
0.00220714129060923
0.00249387659339117
0.00274809210122829
0.00270486229653993
0.00270308217904429
0.00284015505275287
0.002755362615218
0.00276168182324963
0.00259746856114789
0.00241797341775839
0.00238310049276588
0.00252707212045244
0.00267709079560576
0.00258370585860849
0.00307185541412562
0.00304991462035107
0.00240412245757509
0.00235352138633448
0.00245443854450182
0.00264753416986098
0.00259042333316458
0.00236152170439457
0.00262814713014864
0.00305836384268013
0.00284685734282336
0.00239872827109738
0.00267859509860803
0.0028223231456174
0.00243382364023933
0.00233167150383171
0.00261809662252995
0.00273125843283012
0.00242387233613695
0.00186878227468834
0.00146313718702138
0.00160243453502597
0.00178815831462627
0.00211735528473049
0.00220281772742899
0.00232625733042275
0.00289299513126875
0.00294437329875216
0.00278245504234987
0.0026490555763854
0.00242248812567481
0.00274266647631044
0.00255609201444561
0.00237363044419456
0.00282601484738025
0.00317044955674642
0.00285125094314045
0.00264182135316501
0.00295178863189181
0.00279899227844988
0.0024434656181509
0.00306504955458532
0.00318929746963916
0.00324434215296232
0.00346546147800123
0.00304573187720851
0.00289143565558013
0.00301947336665766
0.00292431048076154
0.00264147937653047
0.00255969962970209
0.0028890134565675
0.0029487415245544
0.00315783470708087
0.00329092468626378
0.00278005561035097
0.00264573835369924
0.00284624963680217
0.00270528794839521
0.00279700646127052
0.00299921510648232
0.0030777740778803
0.00296912271381561
0.00204793069430016
0.00220795718803316
0.00305137829683194
0.00254260074819667
0.00181710569038502
0.00212834923299407
0.00277746830258323
0.00229169332348398
0.00141362240296395
0.00142216253432538
0.00190418785619064
0.00282803720455312
0.00306970612867569
0.00244731908806826
0.00200991580933606
0.00133375458435556
0.001938140722538
0.00255418062316876
0.00188088023129048
0.00156997642358971
0.0024140924274906
0.00285493892851834
0.00303030709771042
0.00326708405365112
0.00225581782613878
0.00108228601934048
0.000531254990247337
0.00111394330740092
0.00229810271445006
0.00200123430966696
0.00228185720733693
0.00276876715129701
0.00240465200725152
0.00171956974766822
0.00167857093971475
0.00172031058876252
0.00164860579292136
0.000937204746055607
0.000679102285873291
0.00198726586463406
0.00277225423796275
0.00289144490903446
0.00260503463664383
0.00116111637910621
0.000510894139020002
0.000892666686561014
0.00129367564333285
0.00260188024266895
0.00342032111127874
0.0021015955744909
0.000219908889084897
-0.000397847874375447
0.000962247730061688
0.00272196692597993
0.00271880552761278
0.00190504529160874
0.000782480401876248
0.000559674645371726
0.000965907968435043
0.00115889859968083
0.00170341265965425
0.00123423097054442
-5.23934859198484E-05
-0.000401380654213052
0.00098418746296094
0.00186907123466105
-0.00128497844294871
-0.00174925541519297
0.0011597437114316
0.00216487110569875
0.00120578086141801
0.000518804884826938
0.000808780497765444
0.000749627367448924
0.000961718470108501
0.000789391355886456
5.44107222475533E-06
0.00023638510361512
0.00170838544302309
0.00153409286947696
0.00119172165450802
0.000996573338446561
0.000645453498944499
0.00144226411621227
0.00227279997465289
0.002477796213113
0.00134479964372962
0.000613223951710938
0.000704170018108772
0.000501821086366116
0.00065016876951552
0.00104168332700488
0.00138455188677521
0.00154495975626326
0.0012645155430369
0.001033296502015
0.00146748382608719
0.00199497184375243
0.0019548172001883
0.00139154580313363
0.00104430307341307
0.000766927481813536
0.000822268340541646
0.000898148011732188
0.000492207917969944
0.000211463544188731
0.00109617759179038
0.00212003319514756
0.00212749059061656
0.00159203369697254
0.00129319514339019
0.00142174121782508
0.00137322868828403
0.000769366272573105
5.01975732862575E-05
0.000456289698896692
0.00169620137010278
0.00133382084346306
0.000287404264744883
0.00066259191719549
0.00117917347203433
0.00108449623511102
0.000105884793752557
0.000147595115344382
0.000866084488289579
0.00106661055636376
0.000532592199060626
-0.000641071127844609
-0.00178513690545631
-0.00202428737828141
-0.00175926046946779
-0.0018411503252672
-0.00164329017067865
-0.000353859137864783
0.000621170738202441
-0.00119535994512877
-0.000185453872231996
0.00187906858887375
0.000176400168864759
-0.00185020877841123
-0.000462467677965393
0.000551168498136633
0.000275253670523927
0.000648951739730804
0.000768460544459916
-0.00120017977190243
-0.00195753240535585
-0.000163762892929257
0.00182833791285303
0.00130546181082917
-5.21914366967126E-05
0.00139508065822042
0.00149104534315256
-0.000503926406671596
-0.00081419678989061
-0.000697541784555775
-0.000751440183425204
-0.000239270688413213
-0.00010010889812384
-0.000348861691716608
0.000164217811190558
-0.000777961138689328
-0.00114995253270827
0.000262779523865489
0.000280354397899647
5.44396451623937E-05
-0.000806051395186829
-0.00104863110506792
0.00154385956028466
0.00355936318425646
0.00182230793859308
-0.000719759494982221
-0.00071686884793164
0.000208642389270119
0.000381882632394791
0.00108296968314119
0.00120687766263293
0.000395100116289256
0.000223976188817862
0.000819272732522078
0.00145268497472896
0.00150607596305488
0.00140302624010393
0.00132545937489027
0.000950260339481482
0.000246025672020302
0.000384466260347931
0.00108492709318337
0.00160557855718164
0.00193325411318458
0.00152383756430711
0.00104060217270065
0.00091311266336062
0.000856572997432793
0.0010155089692071
0.00136811250072124
0.00214103626645617
0.00229927655141372
0.00167756555626046
0.00149009603625313
0.00123429757456016
0.0010159873759273
0.00143117226680894
0.00144599091758669
0.00119935129218304
0.00137684043825255
0.00138193112647201
0.00117307993000857
0.00126563970768481
0.00154330986956127
0.00183450057819325
0.00210981786115392
0.00226029158068231
0.00219597643970614
0.00220361984122167
0.00195551921952534
0.00148566735947246
0.00149657793418212
0.00150750935411447
0.00114574025260362
0.00123745788073747
0.0014699556108051
0.00153030402676002
0.0018120932154482
0.00176618915519643
0.00164072862650249
0.00184856044921895
0.00172957710204627
0.00155646564909301
0.00132135429299994
0.00122913866018187
0.00138912118185956
0.00155512488571348
0.00159342194905959
0.00184767620871093
0.00171405734037979
0.00131050930401261
0.00175119650032554
0.00214328369665621
0.0019616641439248
0.00174708115488622
0.00183301993134987
0.00179620463948827
0.00132140571902844
0.00123326905096217
0.00173842593762577
0.0021070945833451
0.00201419421383035
0.00156779172187759
0.0013816000930734
0.00158763338566822
0.00180205911506086
0.00156147110675081
0.00132075961041416
0.00145422640592908
0.00156685760730021
0.00168537362407254
0.00169561732569167
0.00149613388876617
0.00153780965831567
0.00179239527117909
0.00183492048680305
0.0016306395964097
0.00140413918068223
0.00151685411209848
0.00199853873890348
0.00213529925455248
0.0017291211958893
0.00142689800270641
0.00153187597638975
0.00170761107447796
0.00194610580694009
0.0018516438475855
0.00157059718365794
0.00156922795431909
0.00213276650423544
0.00201119352435452
0.00168059263479689
0.00168814082030323
0.00163237085680711
0.0017754759164748
0.00208670108386166
0.00204609399118182
0.00211755334776722
0.00214119953775261
0.00179652871289328
0.0017068614648154
0.00192341832154146
0.00223311899558186
0.0021671177615277
0.00191964133364582
0.00178515405505944
0.00204515085664614
0.00252082448304312
0.00205999910168408
0.00183234494355296
0.00252130722555273
0.00267992316081592
0.00278637766442457
0.00275513769506651
0.00255569987487689
0.0026110579812007
0.00280683153204844
0.00256516411403246
0.00268907359808139
0.00291018592952185
0.00304102692190028
0.00307331324052448
0.00292381419150608
0.00285312771130957
0.00293001057943706
0.00318482016859172
0.00304492210456151
0.0032754223412926
0.00410895032332835
0.00372253838033863
0.00426911392930015
0.00451634509081242
0.00418995507954693
0.0042930250206177
0.00448828982107803
0.00426304245474919
0.00482891499859583
0.00550044845491467
0.0056826220855617
0.00610679297588687
0.0061848593119123
0.00642380221898443
0.00671900758387449
0.00693086232937225
0.00729987531758935
0.00755321651103287
0.00742104054462716
0.0072757695356534
0.00735558441944283
0.007503869156797
0.00770113707968186
0.00751616524588124
0.00744871602856548
0.00834576435758599
0.00815603045115059
0.00780285850739016
0.0079327879380901
0.00805581113129234
0.00799706456020642
0.00803263517853002
0.00798444811585662
0.00783233132098016
0.00861511450391163
0.00889428171533613
0.00819278563476219
0.00795445508244222
0.00803958044239778
0.00824181302264292
0.00827123676980742
0.00818435566646844
0.00780928274877573
0.00784267311275027
0.00830559566018048
0.00843505365759388
0.00818706758904932
0.00805775591823491
0.00808710266787174
0.00835852906374351
0.00818273255233757
0.00790516002905811
0.00782085098492799
0.00776749692246268
0.00760501797480429
0.00762210631380802
0.00759550806605131
0.00750315179193527
0.00737225405378479
0.00730424667996863
0.00736401481026953
0.00759929382016939
0.00765243572522926
0.00743994096472262
0.00723022825515201
0.00709221143014919
0.00746209938979713
0.00756415871369376
0.00708591470636171
0.00713324630615104
0.00754496902000251
0.0072836923125538
0.00712542453590325
0.00687059312980048
0.00640250979361768
0.00676901580164306
0.00743005656266135
0.0070124389389033
0.00696263638614509
0.00703769235947834
0.00728349808254613
0.00711944722625484
0.00673649468249425
0.00674461916261087
0.00683354534374744
0.0070112421911987
0.00731369868982528
0.0071516683571798
0.00687347708517486
0.00707381675751429
0.006983877075844
0.0067294322722189
0.00660465332459375
0.00671545646675614
0.00662474355409384
0.00673600522074354
0.00693375837266109
0.00674614331013519
0.00674894433102706
0.00654509973186255
0.00649420017024937
0.00658550602329753
0.00647174732742014
0.00681835269035378
0.00717938302251543
0.00670551551877689
0.00646294033020824
0.0063604166511843
0.00628621369561204
0.00655116500829371
0.00663544538790231
0.00643551781466702
0.00643415233417532
0.0063851653491074
0.00631457631129257
0.00617133123500419
0.00596251147150297
0.00588157085458802
0.00585624085455992
0.00592585900440991
0.00602972967178032
0.00611002096068821
0.00633059471089014
0.00621217839021612
0.00617440609140193
0.0061773696825856
0.00645770264955787
0.00661145665141878
0.0065751372679706
0.00655668611219762
0.00693754351069066
0.00692225633612333
0.00683756603093553
0.00693569287978007
0.00688507396596833
0.00685487477001269
0.00688658425346972
0.00697895671915422
0.00710801560047553
0.00705021456966316
0.00683758916201049
0.00711357083051785
0.00746843367872047
0.0074548917279349
0.00738240242607352
0.00740457251030387
0.00742966680056235
0.00747490772746816
0.00746968838249262
0.00753608515859893
0.00803513461088497
0.00821821405520916
0.00801691628283016
0.00793999374533607
0.00789315878366451
0.00806705152904505
0.00806420478744444
0.00792688887965848
0.00802477366397645
0.00803029584217509
0.00787174561219078
0.00805659712333838
0.00799106421349756
0.0078129931313637
0.00787258630679109
0.00785779047618899
0.00765381876303885
0.00761374080672568
0.00763072935682602
0.00748269702565098
0.00747559972695054
0.00735948139382776
0.00731382573028017
0.00730402282616282
0.00729052555966783
0.00717574475340089
0.00715898720617311
0.0072694712947382
0.00721916346314407
0.00697888109244326
0.00698469671213811
0.00694838359013094
0.00679257067429452
0.00677124783903109
0.00681964955049535
0.00678459135778752
0.00670511843302698
0.00667401645125325
0.00656931258104323
0.00639686047762057
0.00630926154811394
0.00644283604138387
0.00654236699003343
0.00652481276202822
0.00642286611751782
0.00631507523931597
0.00633079793138488
0.00630997134154169
0.00622342859258878
0.00639781956496745
0.00674540483228015
0.00703423519446992
0.00740970067064979
0.00784703625841083
0.00800771884887273
0.00789431950291952
0.00764030095979888
0.00742478936603678
0.00701687627005069
0.0065567290775074
0.00645835150149953
0.00636274307044461
0.00619995662806922
0.00610651000893353
0.00601056045293896
0.00596835021128647
0.00600883345463552
0.00604270074092383
0.00599392873808128
0.00572638702716502
0.00552434133193684
0.00550988735544224
0.00567414559142975
0.00572856163187351
0.00555593755870673
0.00550991398689412
0.00557245086872794
0.00575449866403172
0.0057303845665226
0.00553762472567973
0.00547633427387694
0.00549227225929681
0.00560157198042231
0.00568041656511372
0.00564748079627956
0.00562577390615009
0.00560417818912258
0.00566312602682875
0.00562723989328707
0.00556841542922186
0.0054827552663061
0.00537840280844347
0.00542492231140843
0.00544597470620964
0.00549014494728045
0.00554884799241721
0.00560252240679008
0.00548911253867272
0.00550520916572396
0.00567800304247903
0.00568604634346488
0.00559988891266656
0.00558240529300874
0.00564835589470105
0.0056484055263434
0.00558031370198672
0.00558179449257004
0.00567728117183732
0.0057430633402466
0.0057713746185482
0.00573883063745984
0.00583702030825733
0.00597629853426457
0.00605593404010295
0.00617048209512808
0.00633786607299812
0.006464060850979
0.0064457916002132
0.00652411744594079
0.00669800047678638
0.006695914838763
0.00674575852913739
0.00682958489479803
0.00683760764931101
0.00701178111837749
0.00711279152650561
0.00723458387576485
0.00743910171742189
0.00755880338607538
0.00768531527573312
0.00789049036455501
0.00800879049797175
0.00807442860861848
0.00827284070827546
0.00854284279766345
0.00874110595519462
0.00895011262093723
0.00918060578584686
0.00939502826668514
0.00955950315289747
0.00954768665694744
0.00950971161345037
0.00955456706464187
0.00954818849966135
0.00968994584234207
0.00991831082544206
0.0100059021897756
0.0099897244962366
0.0100774142582889
0.0102525204861661
0.0104214501172076
0.0105638677104974
0.0105583505930487
0.0106099433487741
0.010798720087931
0.0109784448827302
0.0111190232744518
0.0112804822076799
0.0113559649391884
0.0115034305741993
0.0118626509546865
0.0121463427172428
0.0122663982922911
0.0123912886853808
0.0127137172736711
0.0129734966765493
0.013125555913827
0.0133051301306385
0.0133980844274575
0.0135362697361157
0.0139355555032548
0.0141880128260656
0.0142179443833868
0.0144116985472423
0.0146689460241128
0.0148260674174088
0.0150430453760413
0.015193748062442
0.0153982373182046
0.0155416107417506
0.01575892764106
0.0159888185869125
0.0160197188239328
0.016043537137623
0.0163480003233632
0.0165023262805849
0.016527847635858
0.0166041203520394
0.0166907118117698
0.0168871886039865
0.0171520369730038
0.0173791747675933
0.01749321359333
0.017762987156831
0.0179813469011958
0.0180628887687062
0.0183853041845063
0.0188294905172877
0.019048398638638
0.0191255869047686
0.0192801767318471
0.019508237120533
0.0196775485664007
0.0198576159359309
0.0201669345834252
0.020564273297918
0.0208066074651673
0.0210706062911367
0.0212701606335993
0.0213757308850833
0.0215215231230845
0.0216304649032899
0.0217539337658158
0.0218906758144317
0.0219802703018696
0.0220901487432569
0.0221441031745401
0.0219946777243606
0.0220228309940053
0.0221576914324522
0.0222678309888875
0.0223938106578157
0.0224962139644749
0.0226332755305431
0.0226397712384792
0.0225776851829605
0.0225581906767458
0.0226634006092551
0.0226968307113234
0.0225081889061996
0.0222820758134585
0.0222726181008783
0.0223295276843077
0.0223816036474712
0.0223635025576121
0.022319028202681
0.0223039046405402
0.0221956631527242
0.0219647654863346
0.0219548580924574
0.0219015125652503
0.0216006725077224
0.021371713432892
0.0211970541815542
0.020881930836197
0.0208105653044671
0.0209732856797799
0.0208101241169272
0.0205597125195806
0.0202623324164808
0.0201778147416167
0.0200219026905733
0.0197156050454957
0.0195746323279809
0.019588007511405
0.0194500425834514
0.019201673132648
0.0192509135115522
0.0193354788861527
0.0192082260095017
0.0189082499703759
0.018786980789548
0.0187621395118609
0.0186031818611823
0.0183766840183281
0.0182355154164405
0.0183749754769688
0.0184207572381402
0.0179921275940817
0.0178475959071225
0.0179484669385942
0.0179264841021765
0.0178414375563404
0.0177297867715588
0.0180231414880716
0.0182185822852355
0.0179627953895231
0.017445847112886
0.0170775809756783
0.017153909621781
0.0171887821576491
0.016946999336376
0.0166589757359494
0.0164639603598021
0.0163351381099232
0.0160918736349874
0.0156803497519434
0.0153458994739411
0.0153222201601649
0.0154297180849797
0.0155649470702287
0.0155995639139862
0.0155271925195211
0.0156171350899835
0.0154537421304297
0.0152745032961863
0.0152331456363358
0.0148039140865129
0.0145446530534485
0.0144173922523899
0.0140622723966584
0.0137448151011676
0.0135116466685829
0.0136734341661392
0.0137028768403531
0.0130602591649223
0.0128900085353553
0.0129705203195877
0.0128750489641321
0.0129312968671382
0.0125268370776979
0.0119661526099563
0.0119211047560728
0.0116625824947286
0.0119936779542928
0.0126871838635005
0.0125325455671618
0.0122846469770012
0.0122112461597455
0.0118666952529547
0.0114228599920193
0.0114744551255296
0.0117158573229376
0.0118828104824864
0.0116774611808089
0.0116444271242212
0.0118668543787885
0.0119096940649311
0.0120238191988583
0.012232247587321
0.01308316177924
0.0136575919781093
0.0135805522429352
0.0140445053427804
0.0146408165030476
0.0150027163890184
0.0152225406804963
0.0149200709109294
0.014599691540337
0.0146577553566045
0.015007969114564
0.0151958032266048
0.0147275946124434
0.0149723696855604
0.0155011484600104
0.0156348372231203
0.0154215292618205
0.0153574300197703
0.0155960830499109
0.0153184492777302
0.0148456024784901
0.0151181056935437
0.0154618641593256
0.0151066320910714
0.0146252266951247
0.0146444850831324
0.0145489542736888
0.0141303646961003
0.0140062467361095
0.0143024841908505
0.0144115542456293
0.0138900487271606
0.0133310165351242
0.0138625736166226
0.0151179532238775
0.0146240450168011
0.0131857879890293
0.0133298287406712
0.0136580832151434
0.0132814769155345
0.0133156201564805
0.0137684120612046
0.0140880615374012
0.0135477237851439
0.0130228809777808
0.0138068155090398
0.013895069506523
0.0131970795861656
0.0133395883755833
0.0130070557210784
0.0127224151480479
0.0133111630671988
0.0135312561627172
0.0130297396933929
0.0128249523813823
0.0130704666684873
0.0131461077762805
0.0137383153676595
0.0142940537909857
0.0145660936219756
0.0144205825614743
0.0133807179218257
0.0133344403104387
0.0132073201598761
0.0134088033493993
0.0140139888030537
0.0145586851776327
0.0144641696022086
0.0136963239801956
0.0125333380881457
0.0122788513550067
0.0121327385502032
0.0102753347647518
0.0119257064580417
0.0150323217654028
0.0132897840402424
0.0118750666270815
0.0113498627174299
0.013258283671406
0.0143011080682225
0.0133152357520464
0.0141103567922074
0.0134969663839225
0.00963304824940798
