1798
3999.43349933624
650.420452594757
1
2
4
0.0248229773107898
0.0247976692589542
0.0245896655706287
0.0245282064684804
0.0253235664740669
0.0255824632325639
0.0245622904499727
0.0241508775628028
0.0247752554523474
0.0253161150391739
0.0253670239352731
0.0256112486584783
0.0253585848367486
0.0245655042496119
0.0247296957866769
0.0255165614644256
0.0255004912549523
0.0249131546365894
0.0248028063706066
0.0250417384088241
0.0250441194382055
0.0245786943052453
0.0240695841546928
0.0239104768517117
0.024463565923529
0.0252447959829794
0.0256531352721194
0.0254398548045137
0.0249163944407842
0.0248074900160188
0.0246475138557223
0.0242865575626964
0.0243012209650755
0.0244090781149332
0.0246299016944142
0.0254702415203272
0.0257572511521905
0.024739381239453
0.0244549722475794
0.0248155874019677
0.0244206402363573
0.0244397542188114
0.0252759634261614
0.0255592359443465
0.0251666592543776
0.0247627010709676
0.0241772064245457
0.0236651557283785
0.0241355636164287
0.0250517279477251
0.0254762785314528
0.0256595201031341
0.0259568177098044
0.0255112114601902
0.0243825224640199
0.0239262629925463
0.0245948020272152
0.0248729624731746
0.0240099545850439
0.0241722243641758
0.0250121289930444
0.0246699423084912
0.0245671170665125
0.0244525468789534
0.0234570961258121
0.0238553589529571
0.02466952939688
0.0245802487520108
0.0250848704771139
0.0253193436729384
0.024915982103796
0.0251954002902233
0.0248768685236684
0.0238200942168736
0.0234441960801409
0.0235268045649981
0.0246959079566326
0.0270656331553645
0.0270565563595788
0.0240068948368728
0.0221514285771139
0.0220206986928013
0.0226729341820905
0.0233722649559763
0.0238843643891738
0.0246661443201553
0.0251820466612419
0.0246491390889681
0.0242614381371912
0.0243478472465486
0.023908761603166
0.0234426758933808
0.0231482426172737
0.0235700635002784
0.0251827566675571
0.025887998460592
0.0249597979411117
0.024919089796611
0.0247606110954347
0.0237641762641765
0.0236002942121834
0.0237589199184963
0.0241595940287518
0.0247369792022912
0.0249453869150861
0.0253235107550389
0.0249061087362482
0.0241675026166376
0.0237981533068147
0.0234188946874112
0.0232244085014859
0.0231111019202389
0.0232150531632921
0.023608197884693
0.0241704690820355
0.0241902428004554
0.024175433946414
0.024771879294862
0.0246876450465622
0.0244316160893445
0.0241570561208176
0.0237314939476249
0.024424875405191
0.0249298740341907
0.0245779176292857
0.0240178933309256
0.0238121513070927
0.0247566059628361
0.0254079659179347
0.0245038875580259
0.023757923052011
0.0247225794339214
0.026456832480923
0.026644520837537
0.0253681350913132
0.025618001515454
0.0263573256135954
0.0239699712042277
0.0221201616273843
0.02259274638932
0.0240569278947625
0.0248409627033786
0.0246704304873859
0.0239805933827227
0.0229505086931477
0.0228426470685969
0.0228182567533147
0.0228102255076416
0.0228672449529985
0.0224789998821192
0.0229496026259317
0.0228336117432903
0.022909530967617
0.0250238157147194
0.0260960984146769
0.0248239023037076
0.0233626871876329
0.023191468477475
0.0242805075638484
0.0243656559441978
0.0234851826558573
0.0241661356364904
0.0252100300225276
0.0251210710018499
0.0253146005754415
0.0262531613702469
0.0265980735120215
0.025565551666991
0.0245558675967344
0.0240878310275718
0.0239548039906898
0.0241651919445645
0.0254728980256147
0.0265094932267644
0.0245903651768865
0.0247406442689243
0.0257040842491672
0.024072012037125
0.0226954848995314
0.0226880130629951
0.0234876209495712
0.0234701842251815
0.0234831118855381
0.0248717013679368
0.0252492482078733
0.0251285977573421
0.0264852437407873
0.027183429814254
0.0262108578521626
0.0248045206650877
0.024183088758184
0.023611260809588
0.0239935915491296
0.0248234291460161
0.0247730817870918
0.0249420162911745
0.0250419930311383
0.0257679206637815
0.0272988281804383
0.0262535057785723
0.0250011543810637
0.0249727107886625
0.0252788039727707
0.0253619754390901
0.0250724752737565
0.0253009609823729
0.0257963266126212
0.0255304393233976
0.0257460952665438
0.0260930110079458
0.025213678265572
0.0233839785538086
0.022721632371948
0.0237792797967772
0.0249459785361692
0.0256339179964638
0.0256310612412743
0.0247644610324321
0.0243145335158265
0.0254568824878257
0.0266153045652842
0.0260839847710775
0.0249015280688631
0.0242788564773491
0.0243901855608035
0.0244319821163643
0.0243696099619922
0.0248759412171264
0.0250264685392593
0.0241848722386239
0.0246147678905451
0.0256581473728016
0.0253073926597039
0.024438450347808
0.0235660814425382
0.0238222990370933
0.0233536037353742
0.0228300467999473
0.0233467775476482
0.0232763878672795
0.022530855987489
0.023270044430183
0.0248711460651498
0.0249249998061364
0.0232153951918913
0.0220906759287592
0.0233994759739571
0.0237557735467008
0.0228775866765211
0.0232792845680877
0.0224627054020591
0.022293689010951
0.0242602764341308
0.0248154481540744
0.0241425018485533
0.0237555169091684
0.0232853390207453
0.0236390022157147
0.0235368606446097
0.0227473170511207
0.0233010510461484
0.023770289633812
0.0234819454883563
0.0233939599595078
0.0228739314918133
0.0222253047138184
0.0221378081194447
0.0230422776564324
0.0237396985626259
0.0243792782886083
0.0240841651920561
0.0235735582184257
0.0236743871666647
0.0238501623444856
0.0243568409035941
0.0239416259110647
0.0232361709574395
0.0235985408239372
0.023008396929325
0.0226735245936122
0.0225094899902626
0.0225184653385789
0.0234332653005753
0.023631064114334
0.0227256629610936
0.0226408138640841
0.0233375126619473
0.0237695649887439
0.0236088992292518
0.0238589583104494
0.0240015990508923
0.0235357383535396
0.0238134383400756
0.0240480338624687
0.0244035897912972
0.0247146106789389
0.0239917981588461
0.0240367970186756
0.0242818446133389
0.0226908343533962
0.0221589125398906
0.0232666343300323
0.0234043640556974
0.0229242614366346
0.0232138376058213
0.0232530809168988
0.0237052971312194
0.0246018653737501
0.0247235025947263
0.0242984368191689
0.0236726536130899
0.0231172672434109
0.0229709433411135
0.0236315032501308
0.023405468646554
0.022739261708907
0.0227882674347428
0.0234988180579547
0.0233657951219526
0.023318093513843
0.0236144389023151
0.0237980784689762
0.0234510722602992
0.0237859270758096
0.0240674143728375
0.0242998200800053
0.024075539882171
0.0239114392844283
0.0237081017475747
0.0235033332191657
0.023828533134258
0.0240040284447281
0.0237332304924174
0.0232807791748148
0.0234527033136929
0.0233020970208894
0.0228977015776827
0.0232910696803759
0.0239620345873447
0.023583363191132
0.0237007736249104
0.0236649694605668
0.0236203736564553
0.0237546146007344
0.0237887530657684
0.0238353204207153
0.0238192927387328
0.0242282324972127
0.0240886556699474
0.0234353255288944
0.023717019569055
0.0241640484360014
0.0240016619061012
0.0240177095011026
0.0240561552125313
0.0238912493454865
0.0243358963007942
0.0241169050768664
0.0237300590859597
0.0238944112213749
0.0238095900863735
0.0238152951161299
0.024205802821881
0.0244591317497749
0.0247718735219384
0.0247088736563589
0.0239702499192018
0.0233294222769551
0.0231475412965364
0.0236961730752765
0.0245989734657981
0.0244230977021549
0.0236884123746304
0.0232819034132482
0.0237860981603413
0.0241403565376395
0.023924320090644
0.0238863588329799
0.0235796652246502
0.0229983414357571
0.0231231381337075
0.0236984185189602
0.0245628911755484
0.0245695845532859
0.0236398849846278
0.0232683696179921
0.0236589931790045
0.0239151392923196
0.0236939073776239
0.0232027808971308
0.0229955940226075
0.0234128907150817
0.0241795094534213
0.0243557015304442
0.0239259258137152
0.0236292467408409
0.0243040757106282
0.024570222347167
0.023541202015751
0.0229995620945873
0.0237735535532887
0.0247233258717951
0.0240258551379279
0.0232596588188439
0.0233325133552442
0.0235315975294735
0.0236571581030142
0.023656768267655
0.0232534440877003
0.0231031673788086
0.0234862692093027
0.0237114809776391
0.0234934879058852
0.0232410161889176
0.0231341363343029
0.0234977167366468
0.0238059164694723
0.0234630573575932
0.0233920834083616
0.0232580188921275
0.0234250311942536
0.0237243950946703
0.0231433503443537
0.0227943505278743
0.0228809763575675
0.0228113095971992
0.0226625917520829
0.0231631769382834
0.0235402381213957
0.0231548496834839
0.0231711397389931
0.0232421933218335
0.0232168988462949
0.0234278003051418
0.0234104591894287
0.0229816672767375
0.0226407490166526
0.0230541278802638
0.023290707901839
0.0229488533841579
0.022620388403436
0.0228662869969376
0.0229224098039708
0.0224393728847765
0.0224549827099873
0.0225430680940404
0.0224640247843467
0.0224702903668217
0.0228097422642306
0.0232637494112473
0.0229665097659282
0.022547934996432
0.0226142246063367
0.0226302975758751
0.0227312583502895
0.0227467295998115
0.0225006507675854
0.0226587280512604
0.0231270086631956
0.0228778543749846
0.022451281282837
0.0226910338502955
0.0226514552680658
0.0223745644952454
0.0222461333136579
0.022176864165097
0.0222042317879958
0.0218751234462825
0.0218937596016869
0.0219812303425146
0.0219090049668692
0.0220442077733226
0.0214412818676235
0.0215902437712377
0.0223787133714597
0.0226418071459519
0.0226411922978437
0.022906611317452
0.0234740701813842
0.0244031062967677
0.0249808565418544
0.0249271784282945
0.0249691625034656
0.0250824574902975
0.0247676600758879
0.0244057616973957
0.0241460252972361
0.0243305697572087
0.025340681688973
0.026980457069316
0.0291468389546345
0.0311217509302998
0.0327488968110088
0.033928939394521
0.0340556323779198
0.0330703975367654
0.0315900894257392
0.0305807513215298
0.0304074490280368
0.0304887273386444
0.03112467891146
0.0324236429795872
0.0343475155552122
0.0373021065382464
0.0401659264306448
0.0413000757484444
0.0408452565505756
0.0395047947930657
0.0378445682684824
0.036441005878027
0.0347981685579924
0.0333477160956582
0.03209492787584
0.0310893326597012
0.0307082900506458
0.0304476327313839
0.0306931229579665
0.0317664477239016
0.0337733564312359
0.0371324911618235
0.0421575984821212
0.0483186478382394
0.0544424552890222
0.0590088787718281
0.0603423189282257
0.0582737456871264
0.0546979048312627
0.0504797382817149
0.0456681973417125
0.041419635494921
0.0381817040759931
0.0359643184323386
0.0346113094789383
0.0342423113033782
0.0344513592358004
0.0349772785626147
0.0352307298145374
0.0345338999003803
0.0334575128020134
0.0324657051036704
0.0311969158106417
0.0298037122648835
0.0287418460088704
0.0281892970574733
0.0277945297129789
0.0272610080084229
0.0268970192027669
0.0268783657750114
0.0271880955118818
0.0275161990476742
0.0274212965483441
0.0270892094237953
0.0272156960416284
0.0273637407007226
0.0273279258376566
0.0275419368077007
0.0276964212869503
0.0281773449806343
0.0289015776687699
0.0294856484974092
0.0300299951936586
0.030601003411542
0.031023865338571
0.0313553372570613
0.0321484560115197
0.0333899609461656
0.0349381456251403
0.0367541463713736
0.0387435102609102
0.040823043789307
0.043370783155919
0.0464029172281993
0.0498439614917575
0.0530665932026298
0.0566246132406481
0.0607355724275716
0.0645359983368579
0.0677046969335139
0.0704010956162764
0.07300158041863
0.0748687533170363
0.0752004373849799
0.0743514533900934
0.0728349606665823
0.0708195064465236
0.0685216526722638
0.0662601116796403
0.0644630868093479
0.0626502863517885
0.0603114884051865
0.0577779949946943
0.0554851657294354
0.0533087197580132
0.05117185692885
0.0494565043949039
0.0480222221146575
0.0469054411201226
0.0461674359854806
0.0450585984350269
0.0441751796298661
0.043537175421443
0.0425875712728956
0.0417933769885679
0.0410563049835448
0.040607414593124
0.0404940544946695
0.0399629312574473
0.0390608362058052
0.0382536701223458
0.0379709602036412
0.0385665535808194
0.0395437512988888
0.0405380735185055
0.042038235369796
0.0443025739923407
0.0466994163458295
0.0491958072875896
0.051098866844558
0.0519299833881272
0.0517067286069426
0.0504510610445928
0.0483485870683413
0.045743830729281
0.0431000852240248
0.0407373773510517
0.0387884386241956
0.0368725053842132
0.0351381724413339
0.034017151032899
0.0332874342649412
0.0326230578182059
0.0318968031688741
0.0314051773153796
0.0312676750051153
0.0311028273104689
0.03081814879259
0.030457519658514
0.0300796651703258
0.0299097188905756
0.0300583228632452
0.0299364861747896
0.029525991109066
0.0292963647749255
0.0291702209875928
0.0290397372562719
0.0290240531277141
0.0289338811243681
0.0286975161943914
0.0285837368658329
0.0282722575964249
0.0278671154239136
0.0279500306949367
0.0283206213648749
0.0284945405462984
0.0282659643924075
0.027960550929233
0.0279606619252008
0.0278697520327039
0.02772654146221
0.0277837980986492
0.0277186787562132
0.0276107470796766
0.0276234339990942
0.0274445152962432
0.0272194255013923
0.0272540727312908
0.027242514489344
0.0270686840099711
0.0270024253479426
0.0269513208337556
0.026761241064966
0.026696108602098
0.026802716483364
0.0267845947712876
0.0266538855051376
0.0266894661756988
0.0266388795935247
0.0264905537146025
0.0265084829397625
0.0265964192012041
0.0265584587391112
0.0264348311507876
0.0265453550169831
0.0266400815643329
0.0265303128441305
0.0263607480222985
0.0262847255836801
0.0263779321230489
0.0264992023877237
0.0266445443938869
0.026638584491783
0.0263765766510714
0.0263497328464045
0.026524717451713
0.0262200018449277
0.0259837545435195
0.026281318925267
0.0265275762327636
0.0262742151076622
0.0258733586743286
0.0260320398260329
0.0263373542420918
0.0263249460286199
0.026046217859286
0.0258429604509409
0.0261073871175398
0.0263349637127895
0.0262663482587558
0.0260438020985023
0.0257952021829328
0.0256803916133807
0.0257971159888443
0.0260513600921184
0.0261859009162873
0.0261774710259249
0.0260580642336485
0.0259262701833546
0.0258849884791434
0.0259482287450864
0.0260706604991774
0.0261608693492842
0.0263305966256639
0.0264532314233742
0.0262640232258867
0.0260607428066628
0.0260162741226713
0.0261774960171799
0.0264685125686427
0.0265224379150386
0.0261750067999654
0.0258518358129024
0.0260522770128386
0.0262191284622188
0.0260462820013742
0.0259545192984805
0.0259541319325812
0.0261162746904191
0.0260580379412078
0.0259206431552446
0.0258413412584737
0.0257207768741667
0.0256101684519336
0.025677652320598
0.0258361345645645
0.0255254177808349
0.0252768934590628
0.0255675920983233
0.0256140123566505
0.0253962687257346
0.0253025639254267
0.0253087358673336
0.0251144603974274
0.025009891041344
0.0251721254186133
0.024878954938128
0.0242757396782685
0.0240052114923513
0.0244805732627055
0.0253422178196386
0.025213567126102
0.0244906976199902
0.0243625303279763
0.0245085357321366
0.0242504294105769
0.0242782380352965
0.0245287083272782
0.0243798773430108
0.0243743466421587
0.024202095829447
0.0240622213289173
0.0239320815908974
0.0234861873263048
0.0234916744761917
0.0239279841525038
0.0243410048852012
0.0242583284122238
0.0234307686340809
0.0233634221886961
0.0240917284859632
0.0241447410202545
0.0238409238174757
0.0240675919943732
0.0241219791329181
0.0233796398938413
0.0235245116133919
0.0239736775262684
0.023435656909916
0.0231317415480411
0.023741730209301
0.0241371612112274
0.0240498787791334
0.0239069290591487
0.0240457990697075
0.0237175689871346
0.0233426342434656
0.023510137631759
0.0235170021950567
0.023228115524027
0.0233478101067447
0.0234968401009736
0.0236211733605656
0.023510529981074
0.0233485597853005
0.0234060120259947
0.023409557760036
0.0233678714040624
0.0236373566880582
0.0234849122478528
0.0231018265748589
0.023588139362559
0.0237653336183757
0.0233528212854695
0.0235202153876456
0.0233326348883533
0.0230432573623398
0.0234277666132285
0.0234778961405002
0.0230892286699118
0.0228157062433253
0.0226456794576543
0.0228492203673899
0.0229918863529252
0.0225977137074708
0.0227859843363117
0.0230363282631616
0.0229383085618425
0.0230842286521951
0.0229682214143079
0.0224757988004061
0.0226296975701096
0.0227658218555402
0.0231906590499434
0.0232992054013043
0.0230905138678416
0.02292986444828
0.0226541564156425
0.0225897876151985
0.0227613547576386
0.023366423237481
0.0233073587707117
0.0230894178220207
0.0229646712666708
0.0228363257289015
0.0227842039189189
0.0227793661470031
0.0226378767135752
0.0220527807236952
0.0218606207381134
0.0222838683523856
0.0226806537527074
0.0226419617541022
0.0224528994389634
0.0229167134343481
0.0228593735788911
0.0223448158061127
0.0223042013252305
0.022436106014203
0.0222082773964447
0.0223399630175737
0.0222817252261982
0.0221273143314727
0.022159407187699
0.0224114356236272
0.0223942867086533
0.0226927517567199
0.0228770034907583
0.02256734310603
0.0225320959833924
0.0228731425872235
0.0230912330500464
0.0232777828305589
0.0233546947860901
0.023733529711956
0.0239726778441236
0.0240827085445736
0.0237269883436318
0.0233443803912517
0.0231669491509084
0.0230361337393004
0.0228928294666244
0.0228898609726141
0.0227030996539371
0.0225357639557116
0.0220139299047807
0.0214311093977384
0.0215851875780982
0.0221246049676074
0.022964199761451
0.0240920521875288
0.0240688550387844
0.0236128562930517
0.0236711679590381
0.0237369169691643
0.023720171886826
0.023553307898782
0.0233779135418243
0.0226942106624234
0.0223228470148416
0.0229045604787469
0.0240310328482861
0.0243484577598751
0.0240157104261283
0.0239190212680518
0.0235693993841551
0.0232629913463297
0.0230931475312018
0.0231116020484579
0.0229671439299836
0.0227339476069817
0.0230329133556086
0.0230090787843846
0.0228462495919028
0.0232585412204424
0.0231745897233046
0.0224960983400246
0.0226372918396117
0.0230712878195064
0.0231735051887172
0.0230316640957619
0.0230180819963671
0.0228783118014084
0.0228139703849394
0.0229326496451189
0.0219326364681772
0.0214939746220781
0.0217645493747087
0.0212325811554857
0.0212323197239531
0.0217720578533081
0.0211162081157429
0.0210940294754435
0.0216086006372571
0.0211698530973667
0.0208050229200085
0.0207752883556745
0.0205883659483513
0.0202631704057231
0.0199941040711373
0.0203992371521761
0.0205672954246234
0.0190401158159778
0.0185404103844688
0.0193202810140367
0.0196322577483719
0.0200444430053076
0.0202187989683404
0.0203134344010441
0.0190951960275296
0.0180840876115782
0.0192049338696151
0.020017534943816
0.0188115064432039
0.0187971808029493
0.0187030161674008
0.0190783815725098
0.0199636645276217
0.018095560649839
0.0166788059277597
0.0170300663038893
0.017546269538077
0.0180976349426084
0.0179106854420726
0.0188876927294843
0.0170317573534148
0.0160325259283144
0.0165107737398394
0.016552852111523
0.0170844051872072
0.0182236939744874
0.0179822402825319
0.0165587143290496
0.0181942141792379
0.0185582236922581
0.0173504467148042
0.0160914781476147
0.0142123699351547
0.0137447493771874
0.0148619006009276
0.0149688041950869
0.0153843042262489
0.0162670085799577
0.0156108381114601
0.0151138581220606
0.0151068788838675
0.0159133959957176
0.0175585304688048
0.0192487318213059
0.0176422623086211
0.0133635392379747
0.0116202606730067
0.0132927253116109
0.0124761317759536
0.0121270469162684
0.0133865991246243
0.0139848434740243
0.0136786198841276
0.0141907762607486
0.0161495057164904
0.0158525027320546
0.0158467334716039
0.0165541572798955
0.0168403366103051
0.0171391796373611
0.0165758422589515
0.0164919535469618
0.017663768446058
0.0181226431678797
0.0183203978596284
0.018307190548949
0.0185244922226741
0.0187467263592869
0.0179040333830243
0.0180790732377314
0.0190727764543764
0.018897631119184
0.0184161519089696
0.0186146934290863
0.018406851256204
0.0185284902021153
0.0192804620057448
0.0190880450999196
0.0184326648995084
0.0179075294052557
0.0181211894602701
0.0184562517177252
0.0191311464135476
0.0188399338163984
0.0181754034595086
0.0183701716531225
0.0184328311603964
0.0188547719942422
0.018446833781212
0.0177876475905131
0.017865225112484
0.017935317306818
0.0178062152170567
0.0171800204998164
0.0167436936698802
0.0166711984584801
0.0169141309805262
0.0167482452137872
0.0170116285359778
0.016428309243458
0.0165243262385081
0.0174954385711493
0.0176590574557517
0.0174957762702384
0.0171960798185428
0.0158841054661737
0.0148921629250041
0.015943294218007
0.0170707286554919
0.0145822910168343
0.013028934150691
0.014130918049759
0.015998025316276
0.0155020328352029
0.0137833405128206
0.01385602764995
0.0137081681995829
0.0122473092866689
0.0120366959553493
0.0134039167651498
0.012869325606269
0.0120978890270758
0.0124466643659959
0.0114403304354073
0.011564579739729
0.0128642392439527
0.0135272975415058
0.0144701028267607
0.0140263310753308
0.0136656166425929
0.0157225742458865
0.0165998222443343
0.0162314861810587
0.0148053066600787
0.015036067574991
0.0152658362043212
0.0137485350073997
0.0139546891443045
0.0140177260608122
0.0136855612404374
0.0145631473831702
0.0154237294687922
0.0159201508179655
0.0148366575919316
0.0130775326750009
0.012339627485145
0.0142302645228321
0.0159740110371438
0.0159380611493056
0.0151233099806207
0.0154726891865482
0.015535800681497
0.0154258831301327
0.0164965445614179
0.0175904678569949
0.0183035041219649
0.0184212298670307
0.0187425608609928
0.020250533727119
0.0210480689486484
0.0213118098021789
0.0215487234480006
0.0210662597381512
0.0206813867970437
0.0207396206844634
0.0209433493964247
0.0207984419490792
0.0194594350841665
0.0194484175483991
0.0201239085821389
0.0202289521107998
0.0197768443115278
0.0193925120845968
0.0196610139306446
0.0193002083340983
0.0189251900951746
0.0193379686161609
0.0195438792342421
0.0189438283347104
0.0187411092584999
0.0190930142143238
0.0188528635550012
0.0186737396870662
0.0191773978909599
0.0196274662134719
0.0199698988709326
0.0206034383349092
0.0206831142008662
0.0206302304222459
0.0207031815999826
0.020890758299519
0.0210750437025885
0.0213982108708303
0.0217568950545789
0.0219318209543824
0.0222990228375839
0.0223583247292588
0.0224924652377049
0.0231690597360947
0.0239310479200776
0.0241541603891152
0.0234640060380081
0.0230573202421124
0.0229404226749249
0.0227312837623372
0.0227635575804728
0.0226763317290194
0.0217956450839513
0.0214623056396388
0.0216650850584372
0.0212202956000625
0.020623795351919
0.0208975622405224
0.0213068674736235
0.0205484959070586
0.0196799226787761
0.0194517482301963
0.0197760783117807
0.0200773507258706
0.0202794534518958
0.0210312745263301
0.0214861908643673
0.0211586921084902
0.0210280346139463
0.0205439101667101
0.0203302796005148
0.0206430073550765
0.0209800025543722
0.0214346494267377
0.021909010493384
0.0224425402484764
0.0227834872726409
0.022814377585459
0.0229551187910397
0.0233359189463765
0.0242404172205801
0.0252606642357988
0.0252965858452877
0.0246374926229485
0.0243035105253856
0.0246055212232224
0.0245923420867217
0.0232477699658614
0.0221276606157795
0.0218239069004489
0.0217807303778726
0.0219489276689462
0.0220764259744916
0.0218234356022409
0.0214685736557582
0.0216101781403156
0.0227136192289723
0.0226828901331086
0.02152855977647
0.0210616430932557
0.0207017972487911
0.0209883138596666
0.0218046864137829
0.0218702486470903
0.0219973405673321
0.0224254883795132
0.0226483051901754
0.023729715210819
0.0249972035022976
0.0252671466936038
0.0251913859020988
0.0252336354547077
0.0257749232408581
0.0266239471845247
0.0271547537652789
0.0267814815448026
0.0274369817134078
0.0283870922534254
0.0260275758439162
0.0238393165995457
0.023250418934645
0.023254838084977
0.0235599395902545
0.0235432313775843
0.0233253295663027
0.0243450698979927
0.0253268296119224
0.0237932448898325
0.0217403879569228
0.0210506106273312
0.0214895906328371
0.0221283490852347
0.0229379397031142
0.0229368342551078
0.023056057552243
0.024427672814159
0.0234153884855258
0.0222544578264006
0.0216868177190446
0.0204990207420817
0.0208432263592974
0.0216966001220255
0.0223517740182122
0.0240245932689654
0.025104002305782
0.0229947259439737
0.0216063946565342
0.0218769241033806
0.023336273204509
0.0242540919163208
0.023891617509983
0.0242094107238697
0.0241784208231785
0.0229226927848847
0.0227602171865532
0.0238702529537527
0.0241561880823762
0.0235158976928246
0.0234184384708379
0.0244557233547617
0.027120324382858
0.0265179663386316
0.0220254830964372
0.0218974622674613
0.023241098874124
0.0227522774762087
0.0216706447268642
0.0213641803723983
0.0218135361061273
0.023401400167501
0.0244885060944612
0.0222527994126135
0.0207401495614027
0.0213878162810533
0.0221430506735281
0.0222429695166917
0.0225317395821987
0.022329789452874
0.0216084777712617
0.0220872731696186
0.0227330110180846
0.0217093895350117
0.0207698879574199
0.0208519474877477
0.0217926144997918
0.0238908064304864
0.0278664343394279
0.0345597538155159
0.0424568366438189
0.0479924848638017
0.0488667335211197
0.0457476066613534
0.0410558327427153
0.0368359686897632
0.0336773784818803
0.0312260873199433
0.0299401127501995
0.0308119461135791
0.0330401761883766
0.0340795388717693
0.0328127971788401
0.0317326541894846
0.0306460791768461
0.0270838179947854
0.0251769992395039
0.0255951675572027
0.0252594722146929
0.0241807833879604
0.023668447644548
0.0234874249526384
0.0251984529097525
0.0279931015974896
0.0254218342310386
0.0224460686250919
0.0221554740556205
0.0229079527948354
0.024060720359987
0.0250735473606289
0.0266547926750805
0.0284756202628475
0.0302545229792538
0.0323342536464087
0.0312091888534792
0.0286261612992623
0.0285386104234278
0.0282936447911023
0.0261821332003092
0.025007942768145
0.0248056186686384
0.0241890219207201
0.0235447045362988
0.0238437892176721
0.0231813900736986
0.0221594144786734
0.021711107246374
0.0211421042579856
0.0212249834903975
0.0214733019046835
0.0222044393775829
0.0231864874053169
0.0216027245484649
0.0195208648864575
0.0194426465364953
0.0209419354648585
0.0247913465851418
0.0370769266554848
0.0617307494640332
0.084688278100373
0.0900364812081728
0.0762549077059265
0.0609715921161727
0.0499922497709655
0.0431154319399255
0.0382996597814684
0.0347611592323017
0.032973532084651
0.031942903893237
0.0314093666249443
0.0303292737314107
0.0284789167444127
0.0285182116674149
0.0296209426206828
0.0295752930489271
0.02828287172485
0.027927925090541
0.028180805992214
0.0315158068274197
0.0471341690493705
0.0694198631309544
0.0859643702682972
0.0895570084247047
0.084340115297422
0.0771200579203131
0.0714034383627767
0.0656380543287218
0.0606326565253849
0.0579660287111238
0.0538435764183939
0.046312933018049
0.0421845749818874
0.0401232708392403
0.0377342717314474
0.0352240992012046
0.0339805323095074
0.0330827473340436
0.0327510006060728
0.033189678708215
0.0315376846786084
0.0295879089971229
0.0292449901668762
0.0293596626517151
0.0292694212156858
0.0288908597911256
0.0288911102797346
0.0286671849326984
0.0281861123374369
0.0285279748057135
0.0291783251550451
0.0290840484327148
0.0291214276260101
0.0285631401335887
0.0280005519545877
0.0286136515055341
0.0297297133428535
0.0301052927412353
0.030424783611392
0.0314205456345519
0.0324543035263252
0.0334512582455917
0.0343875974328371
0.0352305398189095
0.0354939852648146
0.0356180940601952
0.0358268036403976
0.0355777711912036
0.0355306396908198
0.0358377502696283
0.035453409079033
0.0346101965203022
0.034175356153988
0.0339843667700957
0.0338031869245859
0.0335619424310711
0.0333686922329932
0.0334169383029187
0.0333558805641911
0.0329703287240884
0.032620780762749
0.032551156398783
0.0322599802447338
0.0313627123043934
0.0308943708715549
0.0310592982697727
0.0316010939167512
0.0322651898789005
0.0328187231304033
0.0329125988247954
0.0327033798601406
0.0323439592703346
0.0319679727632826
0.0316741315269582
0.0314734629653678
0.0316779049253601
0.0320937589440744
0.0322806620356354
0.0322480951533528
0.0320927786463289
0.0316710795042964
0.0312246191816448
0.0309245574368101
0.0306197879036987
0.030323684255227
0.0300050203913142
0.0297110367093274
0.0295178055925481
0.0293895456499211
0.0291743014941416
0.0289098655581366
0.0286602716284529
0.028659162046392
0.0287431743183545
0.0287330489408289
0.0286677931143365
0.0284823961366242
0.0281904019676567
0.0278565853811246
0.0275335555009124
0.0273519143004203
0.0271947985195799
0.0270374022905836
0.0268289826980131
0.0267078850243271
0.0266712925309555
0.0264809183596251
0.0263013270943595
0.0263288100105632
0.0263550193729885
0.0263573356691339
0.026573573056726
0.0267333590063163
0.0266999739361145
0.0267139687444537
0.0266615048111127
0.026639209125399
0.0266562961773196
0.0266382723879395
0.0265409592127274
0.0264569216229726
0.026580300151562
0.0267645613777127
0.0267664140912665
0.0268066086630265
0.0268252423921306
0.0267551314717484
0.0268007371004276
0.02693158664443
0.0270619941443196
0.0271552664009975
0.0272666992755403
0.0275226498321972
0.0278908646576721
0.0283416476002461
0.0288734810016741
0.0294995389530267
0.0301214642629233
0.0306188861980463
0.0309917522659985
0.0311892244110426
0.0313998008514799
0.0316764198957224
0.0320172128935777
0.0326497318153764
0.0338955336912714
0.0355459405989547
0.0371592110631117
0.037880904303903
0.0371885678629923
0.0358716505614039
0.0346172916194285
0.0337615173253413
0.0333370171696439
0.0331806120242815
0.0331550149596203
0.0331112248040727
0.033255967803562
0.0337595184906709
0.0348647631158992
0.0367804625718608
0.0388165057264301
0.0401114610912266
0.0399910670365199
0.0386343395156087
0.0370590875255266
0.0359074221265375
0.0351324354128312
0.0345752631833411
0.0342678619714355
0.0340901283122382
0.0339616121866404
0.0339981564508064
0.0340459350575763
0.0341480673945156
0.0342840442768693
0.0344871438434644
0.0348957860952087
0.0354332438627521
0.0359567089285746
0.0365753514048138
0.0373494729948868
0.0383033374722
0.0391030357888964
0.039704127919756
0.0399443440965655
0.0402601812181392
0.0406265982559607
0.0407966479370091
0.0408797051444892
0.0410915909592654
0.0414168438635334
0.0417398027204588
0.0421827190628901
0.0425175243395429
0.0425764700697328
0.0428409188196694
0.0432074318495781
0.0437887364789891
0.0444586267120202
0.0449855678510735
0.0456855207946148
0.0465700850802329
0.047489195753687
0.0485601198933892
0.050115555379231
0.0519435167763646
0.0534438004449505
0.0543400653305803
0.054627914373836
0.0543816844198975
0.0535699131104314
0.0527998563532484
0.0523134151678593
0.0517489937354606
0.0512489143737536
0.0510133001845882
0.050980123896014
0.0507873019155006
0.0505774632273437
0.050420739731057
0.0504409873347543
0.0505048737998509
0.0504472198226014
0.0507389385850762
0.0522145522926924
0.0555786118366097
0.0608960667294086
0.067091291544336
0.0721880779537608
0.0739664722122075
0.0721653807826107
0.0688899672871594
0.0658738194064632
0.0634345863958547
0.0614647696007161
0.0597734891586957
0.0584915290999401
0.0575699472535025
0.0566821240916199
0.055896364368034
0.0557429224161526
0.0560548022974658
0.0559834161985423
0.0548411949120078
0.0528877290758141
0.0513154322128267
0.0503039751459981
0.0494858947885207
0.0487677820768735
0.048182305110399
0.0477404971387331
0.047451463973614
0.0474168192930348
0.0476832175777665
0.0476288710276392
0.0470588908345059
0.0462693919327319
0.0451294101881875
0.0438781863456931
0.0431420069587736
0.0429377599846341
0.0433046853004235
0.0437943607033218
0.0437401521537733
0.0430529242111752
0.0419739792226202
0.0406755391930401
0.03937372829615
0.0381746520875542
0.0374696417586635
0.0372118284586292
0.0370195548941465
0.0369818096604985
0.0369985842013718
0.0368886117999434
0.0368412989560575
0.036697813056256
0.0361098413459073
0.0351260801287422
0.0344502080743218
0.0339372988131528
0.0331108922377545
0.032370155294659
0.0322476411769947
0.0321212511262085
0.0317012190864068
0.0317331860632743
0.0321480256092458
0.0326619712714156
0.033658155348591
0.0352185948594619
0.0376810673312366
0.0407658644539768
0.0435665508187836
0.0452027073369163
0.0447467063029746
0.0425635770825366
0.0395928431935207
0.0366501012701377
0.033983229508994
0.0315505460200086
0.0302449238125248
0.0293957133213485
0.0283532359962392
0.0278744767897985
0.0274455860567592
0.0267868259150452
0.0262429439484702
0.0256920043321389
0.0254863258508716
0.0256826413527188
0.0258143264439961
0.0254343007800388
0.0248617406581179
0.0243679561619096
0.0239694245334273
0.0235141849658385
0.0228175916498964
0.0223321350203468
0.0219865469020572
0.0217416989495084
0.0217588434812854
0.0217700235006457
0.0217974800848487
0.0220988821893011
0.0225625218084243
0.0235968198255194
0.0254993473841101
0.026965332527004
0.0270702371403658
0.026544456205228
0.0260293596911671
0.0253758998224454
0.0239090014497536
0.0223588780305699
0.0212878898515635
0.020951186012535
0.0206622408499985
0.0201553694985916
0.0199578267394268
0.0196763398913912
0.0192727147439184
0.0187212936028444
0.0185010485725114
0.0190063762776298
0.0194561508644571
0.0197052929636029
0.0200537154734677
0.0205945697300037
0.0213236158217981
0.0218084054251533
0.0217792604727003
0.021936093558086
0.0223257596191519
0.0224027765021521
0.0224821209904007
0.0230208670911703
0.0240105042218922
0.025280358736318
0.0262330992850146
0.0273197278405099
0.0294737277966723
0.0320967849998297
0.034958031031686
0.0379540931385016
0.0415235728521285
0.0465041376894579
0.0529391542970532
0.0593195483837418
0.0650815753002394
0.0708289963347452
0.0771338015319651
0.0837449526027914
0.0899368024981434
0.0951753822337917
0.0983972658282088
0.0990652973397921
0.099309566719141
0.0998471112351347
0.0996435856544128
0.0976555485407658
0.0907283989329161
0.0807778716612808
0.0724374602542734
0.0651765035021366
0.0581332585102982
0.0506364686456374
0.0428379516306277
0.0367153591164102
0.0321423608263799
0.0289390282884494
0.0268842689274759
0.023939124597452
0.0215181063189086
0.0213234639727959
0.0219537546545829
0.021992500239419
0.0229790173316094
0.0255910505380543
0.0298619489801906
0.0396835703596137
0.0574136843329126
0.0814837198021776
0.110258702253669
0.143252721351065
0.179529114395398
0.21426446953943
0.233302317343008
0.221410190504868
0.188352113800545
0.156353573237662
0.131181964922521
0.112206176899684
0.10016684660987
0.0909077042583738
0.0824385793749666
0.0769594138022225
0.0718866465264707
0.0659430978486588
0.0625847029561249
0.0624661118394826
0.0618484172722448
0.0561058637506649
0.0521037275173007
0.0520986481135955
0.0524753613433701
0.0493535824544933
0.0477461674752606
0.0480606726351735
0.0462813557337647
0.0435072466890921
0.0398979124813076
