1798
3999.43349933624
650.420452594757
1
2
4
0.0344197984162779
0.0340640472396468
0.0340603556835806
0.0341530023001034
0.034042885827353
0.0340069284821686
0.0339502716762415
0.0338614809972108
0.033842197964375
0.0335365376160099
0.0333372372015793
0.0333784570152021
0.0329749762396287
0.0326578949045179
0.0332346210729022
0.0339608731806402
0.033801444263001
0.0334036015870015
0.0336892216457689
0.0339966462762033
0.0338576999860306
0.0335578324732714
0.0331692992787485
0.0331029492237424
0.0335511382122479
0.0340147613015835
0.0339665828565255
0.0333274303221121
0.0332061477732721
0.0338541117310749
0.0341762210524151
0.0338737031223753
0.0332811982009158
0.0330250705510248
0.0335790568722725
0.0338440277059091
0.0337984451017519
0.0337585860986403
0.0337024492647815
0.0339433123897712
0.0335111564890448
0.0330030546239384
0.0335066756751612
0.0340416774556377
0.0338414220115974
0.0331944300338047
0.0331151171396764
0.0330758919697282
0.0329957094125254
0.0337239403882876
0.0345438573684672
0.0348767352635161
0.0350024246324347
0.0345657889366313
0.0330670270354448
0.0316175344751393
0.0321545088163112
0.0335813417998863
0.0334740556215748
0.033466838403842
0.0344223758342834
0.034373070546075
0.0340620753378307
0.0340248230637892
0.0327289698968341
0.031706545697195
0.032361780492442
0.0334751371602137
0.0340585897247512
0.0343286043117813
0.0339273195286005
0.0337567657352849
0.0333676178692241
0.0324925049715733
0.0318492942079329
0.031528902354705
0.0329934304536864
0.0362618066217616
0.03714341788373
0.0341239349561705
0.0309565010401011
0.029830401288457
0.0304603141296967
0.0315584448715591
0.0326851735192528
0.0338719357939048
0.0349174255504118
0.0345782876450935
0.0333295588459916
0.0324429690667658
0.031638292880773
0.031289819685944
0.031981147085748
0.0328228318107353
0.0339436357451702
0.0344008880975956
0.0333700021572228
0.0337743563117755
0.0335247909409953
0.0317485831058205
0.0317050073973389
0.0324494890093307
0.0331790607141202
0.0326944507300554
0.0320695893253227
0.0337183677817396
0.0344804457202291
0.0328921853733533
0.032299487759754
0.0325894669713816
0.0321747474635057
0.031660846618692
0.0317228559587697
0.0320764038088304
0.0323947358734523
0.0323178287454005
0.0326774704219054
0.033429188092782
0.033323197141456
0.0326986046389307
0.0320749566830982
0.0321579063825867
0.0333054032631052
0.0339562320783686
0.0336767805111061
0.0334191502980652
0.0329640600799871
0.0328091177879001
0.0328631973160002
0.032682362423539
0.0326459132626743
0.033313386419179
0.0346147016482094
0.0350845726835806
0.0341373508911076
0.0336181384810326
0.0346419967856306
0.0331621032696895
0.0306940508704704
0.0305529416223418
0.0317431434637464
0.0324452888289034
0.0329821268911543
0.0328257422971035
0.031235624031713
0.0307413781755083
0.0307780289727915
0.0306834958668306
0.0310490556816739
0.0317225303144988
0.0320915893384754
0.0315845621099771
0.0314907330340854
0.0333144354947904
0.0347002675334168
0.0334381422360781
0.0322436326258652
0.0322188069825587
0.0323693298222256
0.032531737601242
0.032772920571672
0.0334740235132196
0.033787570962742
0.0341563074873932
0.0351338221643973
0.0358206362813751
0.0360137018646497
0.0344809986998606
0.0323736118431018
0.0317097725235282
0.0321383448849954
0.0328783978421139
0.0339908302837174
0.0356365914335514
0.0348935232942341
0.0337866599331982
0.0337521484009304
0.0331234602744227
0.0318785357775324
0.0310550552397717
0.031466855385489
0.0323598423849746
0.0333681032062807
0.034624972880817
0.034866958619268
0.0343912114773582
0.035436740427675
0.0370226296090344
0.0368161871073717
0.0344239459337267
0.0329755077589594
0.0333275966617908
0.0334406213690091
0.0338363331806005
0.0345437312770632
0.034901139156351
0.035244652367199
0.0366168167977623
0.0384670386864867
0.0373804890807034
0.035398197926655
0.03509252823101
0.0358567438135857
0.0366292826192581
0.0358934575972096
0.0356016915322688
0.0358359968121052
0.0353992390124898
0.0353562086661508
0.0363532651333253
0.0355076682519654
0.0341797491438392
0.0347126118300075
0.0354435258481673
0.0342852155105434
0.0334478326029751
0.0340352625963352
0.0351238259482753
0.0353710825175754
0.0359192232772833
0.0370100838871191
0.0361445299424327
0.0344446817029874
0.0335773490319718
0.0334570474211459
0.0338429575599828
0.0334209280412287
0.0336781166342777
0.0342889797521205
0.0339127036890521
0.0339778168669008
0.0352677481790232
0.0352061600495952
0.0335217010346952
0.032720885125868
0.0330794489164593
0.0332317380342879
0.0325590295143447
0.0323713286070293
0.0327384059937439
0.0332880788566318
0.0340307743580229
0.0330004737655878
0.0328533330713012
0.0345510775488523
0.0339547102501414
0.0323405167023523
0.0333105359310905
0.0333347640531132
0.0326769737660722
0.0326433132360634
0.0331363938605556
0.0336687757499282
0.0341588422736364
0.0343952223724742
0.0334978073070527
0.032212559512561
0.0322406136625296
0.0331988245864345
0.0342925123840697
0.0345397709258009
0.033638111429982
0.0332701774489931
0.0333195783532202
0.0328304401836216
0.0330651933008374
0.0329863447542212
0.0322520042201297
0.0330965627188871
0.0335852976603826
0.0336227777994148
0.0329125487644703
0.0330648968105817
0.0334879951778579
0.0331360079451973
0.033073189783474
0.0328242495245816
0.0324429800264502
0.0325882004223234
0.0332868440371051
0.0341333654835044
0.0334413811952655
0.0323437709347375
0.0323380958968529
0.0325828893434058
0.0333676187960652
0.0343310044344259
0.0341837835124668
0.034153314800341
0.034611614291937
0.0335868523076637
0.0336705362844705
0.0350074345510118
0.0342330505608131
0.0340272583186619
0.0351111840358276
0.0349493461859168
0.033711842121488
0.0327488853983667
0.0327461268976541
0.0337430582040198
0.0342030141907086
0.0339281549196182
0.0346126114449377
0.0352073753556657
0.0345131488886873
0.0338463319325789
0.0339783769733764
0.0340118824216931
0.0346756166603756
0.0349086744266497
0.034892101241094
0.0349739551237124
0.0349934449765277
0.0354643800455029
0.0354575399096029
0.0339652484719686
0.0342209804940077
0.0351268642135655
0.0342632476001778
0.0339537370189859
0.0343062257424577
0.0339374097116239
0.0337505355853341
0.0340505689403794
0.034020193698007
0.0340248155623473
0.0346146168377682
0.0356325464268654
0.0358033741598436
0.0346451736958383
0.0341291526075191
0.0347270704143303
0.0350927588447091
0.0347420687593419
0.0336847194361475
0.0338441534709404
0.0336622385291773
0.0331347995808119
0.03376689332991
0.0334930354056092
0.0331666953775048
0.0341703388369595
0.0350040577130507
0.0352783849764465
0.0354615270105088
0.0347912038507109
0.0339892224779297
0.0344360119479184
0.0345029006937745
0.0343709340930283
0.0345565273970472
0.0342886645085621
0.0334289224537532
0.0336072104323574
0.034925601789371
0.0350776347474104
0.0346980682964676
0.0346667063552848
0.0348422911715051
0.0348503379870285
0.0347148824865238
0.03475210270102
0.0345458190972414
0.034379499082197
0.0346470714129877
0.0352877197836823
0.034647698142962
0.0342882611209751
0.0347207823030075
0.0350125546166459
0.0346820213644484
0.0343719907138883
0.0344078441905745
0.0344100416085379
0.0345235669574633
0.0352020499731248
0.0354869437094187
0.0356444261422987
0.0349692628822054
0.0338408781066691
0.0341055741599273
0.034639814007351
0.0348019301463214
0.0350601727671939
0.0347723834192933
0.03452733632735
0.0346275170749995
0.0345414958225238
0.0344816888133608
0.0341977339265752
0.0338324315481681
0.0341839834227474
0.0353106918816408
0.0352251667665892
0.0348357220867369
0.0343394565902
0.0340098353289167
0.033974730387682
0.0345289998294459
0.0347352054152726
0.0345088002579359
0.0345822252391254
0.0342562115676734
0.0334448963601536
0.0339803666746039
0.0348290536145618
0.0349286730955971
0.034336040234656
0.033691959927183
0.0339905658544761
0.0339947933657368
0.0336661476919722
0.0331459924924799
0.0335278919126958
0.0342962900450025
0.0343196936809417
0.0337949984991771
0.0338746373242116
0.0333828455044531
0.0326209631891814
0.0333467169561135
0.0339135513169599
0.0340579083401673
0.0340109401273804
0.0337663617976716
0.0335890422298384
0.0334778802322673
0.0332496257311519
0.0334847952490836
0.0337956633147634
0.0338541725041083
0.0333868227218922
0.0330772350631428
0.033266521650261
0.0336118830314906
0.0336939388890662
0.0330811631315784
0.0325032496163795
0.0327897158159703
0.0325622327131928
0.0325981303433244
0.0327696321070083
0.032597124628957
0.0326157045244527
0.0329473306916834
0.0333298332543672
0.0332680436499961
0.0329053471401254
0.0327575687865574
0.0328501395116789
0.0327860498204769
0.0326817115493413
0.0327699972099843
0.0328444476328387
0.0329487814594665
0.0326278610936026
0.0321703759964986
0.0322283224004668
0.0320379593839314
0.0320640864386639
0.0325024768739888
0.0326433599159433
0.0324588566379384
0.0321774187302333
0.0319208144509492
0.0315867495098101
0.0314165935749689
0.0313937721891601
0.0316270964203718
0.0319949466930202
0.0319205769732432
0.0316814196451262
0.0315551055731493
0.0314752204451254
0.0320275911658804
0.0324111667435113
0.0324736298772452
0.0332898223505527
0.0341753341890632
0.0345158003821231
0.0350141798600502
0.0351117254258129
0.0348484628855309
0.0342662067547397
0.0341319985030614
0.0343736010641306
0.0347186052647576
0.0359502707464641
0.0380029542013584
0.0400398549364592
0.0427190100774943
0.0448742031319216
0.0452072529280055
0.0446813857709313
0.0438760062209399
0.0427153587995173
0.0419090813572099
0.04142758349416
0.0410515728826233
0.0419608066382021
0.0439770969946666
0.0463784083737758
0.0492106310605278
0.0517071349438308
0.0529548711004651
0.0528050207767189
0.0510269611013242
0.0489000138867486
0.0475061430565747
0.0458449210487501
0.0439989816139481
0.0428489991714145
0.0419905745488932
0.0413409021444856
0.0413179559071858
0.0422489296049152
0.0444684819802477
0.0469728254962994
0.0504405948695404
0.0561852430571061
0.0629140685623726
0.0690223680660538
0.0730784137411812
0.0741575012087679
0.0721099204801432
0.0676586114757735
0.0624665389466225
0.0578444362386563
0.0536275126882566
0.0498772785727196
0.0474593965391217
0.0465020899158314
0.0465793054139133
0.0464640306752708
0.046545231022326
0.0467217926807703
0.0461644527852749
0.0448393827309258
0.0432396943262296
0.0416725229493049
0.0401525065207925
0.0391174576822144
0.0387524728305001
0.0380253659881859
0.0375908873997757
0.0376422429940864
0.037517563340772
0.0373395139326013
0.0371354455443712
0.0368916365491232
0.0369692915294098
0.0371044062894311
0.0371171348654787
0.0373862381488923
0.0377581246395188
0.0377321726986194
0.0380265096599917
0.0387087177058799
0.0392075688259411
0.0399253166115693
0.0410178461520177
0.041854368921409
0.0426473430647388
0.043619761373875
0.0451967410646405
0.0469587564938825
0.048762499101805
0.0511044869289445
0.0539455057164161
0.0569936538773539
0.0600548980396699
0.0634795640954305
0.0671762020326345
0.0713626709594287
0.0752514637907365
0.0786416176517249
0.0816931830663208
0.0842840199615085
0.0868255111847107
0.0883398905202308
0.0883956623607287
0.0877538080030153
0.0865415442419716
0.0846769123845376
0.0826776339886093
0.0809218066121322
0.0792862400258427
0.077522179595922
0.0753088669596192
0.0724370377898342
0.069940055853424
0.0677836847386432
0.0655782555595785
0.0639086649363378
0.0625508636182268
0.0612787121913138
0.0600656867853803
0.0590311239322865
0.0581002031265391
0.0571876472149609
0.0562793297015701
0.0556202343797091
0.0550935314896597
0.0543119214814744
0.0534321779420055
0.0527045687237097
0.0520849014627153
0.0515943993558869
0.0511912075038222
0.0513674888275068
0.0524735504675319
0.0536370916187024
0.0549004953960655
0.0571113402564086
0.0597629601892352
0.061992561057279
0.0636970927633636
0.0645571152832514
0.064194635300233
0.0629061521513732
0.0610596053484557
0.0586081320129935
0.0561922721780698
0.0539855495725189
0.0514831778362408
0.0493005694023736
0.0477321593696331
0.0465229519531573
0.0455726748165396
0.0446192918513992
0.0436643038586704
0.0430213402332579
0.0427991166528557
0.0425683768063402
0.042127185275224
0.0418866803663687
0.0418915747503657
0.0417046009229102
0.0413083155743847
0.0410594670875558
0.0410156903635682
0.0408102662387245
0.0405058452918786
0.0404554909601731
0.040240619481711
0.0398530067158315
0.0396656097369986
0.0396181028852914
0.0394038274412466
0.0392930793449173
0.0394126082367813
0.0393212412470304
0.0390311341306714
0.0386883648627018
0.0386604113572088
0.0387516648284623
0.0387095899062541
0.0386079044879933
0.0383985977678313
0.0382716136307837
0.0383588748133483
0.0382922998997896
0.0379795795760323
0.0378813739000482
0.0377323253810919
0.0374813462677082
0.0374254048632439
0.0373195442501088
0.0373525625122249
0.0373977478545048
0.0371439514287337
0.0369009230037275
0.0368953081959783
0.0370636063492028
0.0371331255854646
0.0371200620691777
0.0369522616740947
0.0367454540172176
0.0369162188372839
0.0371250053708305
0.0369902472394749
0.0368852221990392
0.03691171569371
0.0367539120141173
0.0365286207774634
0.0365108404223594
0.0366774405080449
0.0367313118979005
0.0365739912105029
0.0364690902083755
0.0365648037823335
0.0367150512061898
0.0366720247782675
0.0365331495897374
0.0365079680293197
0.0365051534477411
0.0362478983192943
0.036054780477404
0.0362510273147022
0.036266224540397
0.0360136749125298
0.0361455113948698
0.0364255911433297
0.0361132334510863
0.0358013454405384
0.0359902908709754
0.0360926389608372
0.0360694200754309
0.0359839351279777
0.0358572556546973
0.0360521947632587
0.0363318003317349
0.0361930092167873
0.036082838895964
0.0360098507290327
0.0358574397684565
0.0361973370961545
0.0366492764065379
0.0365662617521972
0.0363628034562501
0.0365543634225201
0.0367476414290375
0.0365913788106053
0.0365609392199564
0.0366797732364175
0.0368422088958722
0.0367981053623854
0.0365805788458994
0.0363765554806867
0.0362450944563309
0.0366197381751642
0.0370069966810069
0.0369792903347942
0.036836899106189
0.0366523291983702
0.0366079170102424
0.0365335992660571
0.0365346624848554
0.0365144255654676
0.0361666087442273
0.0358286459300416
0.0356757063444259
0.0355382210043205
0.0356545581520579
0.0357995348534921
0.0356463762869196
0.0353559761531013
0.0351140109004053
0.0351923935018315
0.0353771229397688
0.0352742652398422
0.0350725401526709
0.0347825611344911
0.0346068590252606
0.034502913848211
0.0345229179984873
0.03463108048292
0.0344403680793837
0.0342186077567444
0.0340967851245005
0.0342178680639438
0.0342727675356928
0.0343389505090219
0.0344169357537764
0.0340825432451191
0.034035409246986
0.0340738082589932
0.0334138153498098
0.0329509055049598
0.0330502673262775
0.0331634906765624
0.0333207607144291
0.033349290143556
0.0331988966792828
0.0333120036175538
0.0336767758006098
0.0332396836732403
0.0328267240387977
0.033283513589814
0.033476075579358
0.0332078931110574
0.0328100868751527
0.0327519669576488
0.0327813175048002
0.0328241139311632
0.0332693231137064
0.0335204667762324
0.0335769165969331
0.0331870432376304
0.0327912809294419
0.0327798879446743
0.0331813552765206
0.0332225553124382
0.0326057137230266
0.032607637052158
0.0328288216973932
0.0325175353889356
0.0326502140189507
0.0328415620852116
0.0326355718287806
0.0325955969607799
0.0327678707628545
0.0327308073051797
0.0322887997446327
0.0323943006475611
0.0329734883006478
0.03308475735756
0.0331028471393541
0.0331459419901294
0.0327717367180024
0.0327953450071304
0.0330020546008174
0.0326628785818692
0.0323079836354641
0.0323235151451725
0.0325592446648285
0.0327612720778625
0.0326941662977266
0.0326420720550345
0.032771811601864
0.0323033765137397
0.0315529170663033
0.0314851453740915
0.0320347115675078
0.0321649542348064
0.031838243813856
0.0316840500103677
0.0320702586721894
0.0326120492974277
0.0324031066171596
0.0322187875403626
0.0325108754375303
0.0325088230128853
0.0320955003178476
0.0321710714219603
0.0322883945689871
0.0321206348699101
0.03216300444339
0.0320282969194606
0.0316679581144301
0.0314576491362226
0.0314265578890259
0.0315794971729818
0.0317042721226461
0.0315661073359117
0.0318696267345706
0.0318920946473262
0.0315070381590149
0.0315699479196791
0.0315472813064245
0.0313737755831251
0.0312547955428691
0.0313000864760647
0.0312473097853847
0.0311532504916144
0.0309225111589516
0.0309264922044192
0.0313183909688436
0.0313312541896757
0.0308621852495705
0.0308033781470856
0.0311488207652468
0.0309540702519699
0.0308053810923883
0.0310421604627773
0.0315095967227374
0.0318353147292167
0.0314045592581107
0.0315553214714569
0.0321492936207758
0.0326553033273476
0.0328648654107119
0.0330253475910163
0.0329084466588682
0.0326598008427544
0.0322049470893571
0.0322277068205615
0.0321956395331567
0.0318077453388517
0.0315304503240889
0.0312386437977821
0.0309004932381939
0.03059292173253
0.0299780884336429
0.0293707304117296
0.0304997904716244
0.0320838266123582
0.0331594741386411
0.0334758934606049
0.0331173164076866
0.0331869008755595
0.0333618344570073
0.0333049560822991
0.0327061161323186
0.0319059720183663
0.0315981560605743
0.0316813796830026
0.0322958729855558
0.0332772598361259
0.033647753667534
0.0338075095103812
0.0335665233347503
0.0329661827255496
0.0329213820288151
0.0332046312843886
0.0330354856208555
0.0324362270168873
0.0319597491420859
0.0317480148342428
0.0318483204378136
0.032443387249066
0.0326919282204905
0.0321993622207254
0.0320345273905641
0.0320641357971171
0.0322893263580822
0.0326082922599229
0.0327353952391558
0.0328099109898257
0.0324914483239622
0.0317984400292836
0.0312044514484404
0.0311799250007401
0.030833729462006
0.0301719500359754
0.0309416616498557
0.0310504544268439
0.0299542345485916
0.0296454907664256
0.0291444491155153
0.0294386117180018
0.0305523154103204
0.0301974021836315
0.0293093052543913
0.0289168264766974
0.0293271710218923
0.0291394750725379
0.0283463658145471
0.0286024970346339
0.0286019118075837
0.0285189263244666
0.0287815758656906
0.0279117808647284
0.0272241661635719
0.0273236544489653
0.0273255623581912
0.0271346476722974
0.0273876007671398
0.0276273832525194
0.0267720970512139
0.0260063416088977
0.02645755383027
0.0260860014857388
0.026502264468968
0.0268738172834318
0.0255779459908445
0.0252321370152574
0.025790466893894
0.026878203379017
0.0263916042299464
0.0250156042039973
0.0256118102897697
0.0258024949076385
0.0261258467146864
0.0265243723067189
0.0262297856759896
0.0253588450077144
0.0239705196543719
0.0235684041039578
0.0242935013058604
0.0246610419883725
0.0243770795640786
0.0241788474256317
0.023805654501965
0.0229482113665566
0.0227172409622129
0.0229786599402929
0.0230495380104632
0.0232315298691918
0.02243709018299
0.0222070069536755
0.0221475937420726
0.0236970371346993
0.0245175489692279
0.0242014442021036
0.0240467834310945
0.0220118970372041
0.0198506149638222
0.0193808260809416
0.0190680406325833
0.0172583632153717
0.0170232738778818
0.0177100443786146
0.0185629989250636
0.0198199629317431
0.0205153527364024
0.0214212868619872
0.0224702615916081
0.0231075007581902
0.0224425676009558
0.0215993069987814
0.021208221188611
0.0224719110683509
0.0241646504950091
0.024761527832558
0.0246639100051982
0.0253402572521517
0.0257388364550602
0.0258870485739441
0.0270203261762533
0.0275887521053177
0.0272921287822118
0.0261467905240018
0.0258956616102387
0.0266601069544941
0.0269524743498676
0.0263896925715122
0.0268952294133717
0.0266340714195282
0.0255170208716233
0.0251390418733667
0.0253567598579591
0.0254879939710863
0.0249541367362183
0.0249390132279804
0.0260137734804407
0.0269694864275601
0.0270596418320944
0.0268686725979176
0.0274360530100748
0.0268297163770523
0.0260858081143481
0.0260729544946724
0.0262458788586789
0.0252021792136511
0.0251446469228625
0.02676184255596
0.0265657074359034
0.0248852917338534
0.0238680561468398
0.0239783113796285
0.0248321930423332
0.024444129218104
0.0242627229448038
0.0251326070849626
0.025597421100551
0.0243023153904884
0.0221546750184375
0.0224975817868782
0.0226402401700364
0.0215165837289814
0.0209065440761216
0.0206512176357408
0.0202890251602952
0.019689124203352
0.0196733345462728
0.0180143703200903
0.0183292511714906
0.0180999762894237
0.0190086027883743
0.0198288046293977
0.0207622568006528
0.0222578757354067
0.0215460269250836
0.0182880425444641
0.0177773137621682
0.0194683956563317
0.0199260253916132
0.0200522781216104
0.0203567741942428
0.0204531935519087
0.0212786188733107
0.0201009457681715
0.0203469990769861
0.0217263482543604
0.0210002365775166
0.0212993336406996
0.0234629993073441
0.0251387064642225
0.024867448118509
0.0229599558005804
0.0222230025492856
0.0228074503795264
0.0221174614669409
0.02165134992915
0.0208180174776503
0.0197929734987132
0.0216271605071791
0.0217889375995345
0.021892530452496
0.0228949431193906
0.0239154080617602
0.0235819060653088
0.0232939292486056
0.0235730525626111
0.0235425748102561
0.0238644350213751
0.0243680114178832
0.0257334063473549
0.027930552350493
0.0289209340495449
0.0285637394914506
0.0280007623489882
0.0288597147286805
0.0312341642471642
0.0316496760683933
0.0304159154971106
0.0289208925419481
0.0284762585049708
0.0284399771913623
0.0281214665537207
0.0281118061674122
0.0284501648369674
0.0276955523071344
0.0270726956334158
0.0275002881599277
0.0277355358200067
0.0272798749130545
0.0268723767405683
0.0267694615832081
0.0267865933657169
0.0272021003018556
0.027308988066231
0.0274297313319157
0.0271910111757472
0.0267815268499513
0.0278686373585524
0.0287582890679838
0.0285566026238319
0.0283814546265602
0.029086660502133
0.0299250979350366
0.0303104839248334
0.0303313892742674
0.0302455757430102
0.030599464627268
0.0310425575041951
0.0310901016233229
0.031227365540567
0.0319555012034108
0.0323972507786265
0.0327661793225991
0.0332485715175104
0.032746427745251
0.0321236718122165
0.0319420344362918
0.0318435163015272
0.0317617271583308
0.0315637410894489
0.0309699781228832
0.0304789542038606
0.0301727966860376
0.0297116363985619
0.0292433232955882
0.029554958788494
0.0302411122133717
0.0297208033398341
0.0285570328908466
0.0283316710342139
0.0286338873304379
0.0287954226271597
0.0288388919507067
0.0295654931868666
0.0296964770112567
0.0286616217232524
0.0286265040942128
0.0290515205802868
0.029063625062075
0.0297767023782089
0.0305525141857238
0.0305446648673073
0.0305892082009024
0.0313625767568038
0.0320859707389984
0.0325852204410996
0.0327964453975923
0.0329610760185433
0.0337024652219234
0.0347939328103631
0.0350755543667379
0.0342410220529743
0.0338221684323633
0.0344077305534181
0.0346115433360072
0.0331617820379259
0.031431755488375
0.030865181053571
0.0309668793054498
0.0308516359283653
0.0309750799122768
0.0309947793274049
0.0307074719555026
0.0308587865943022
0.0320399118558752
0.0325548582120905
0.0312495508320726
0.030222198097003
0.0296253969173016
0.0299426852911391
0.0313336059630091
0.031640086697035
0.0315348415739457
0.0321359239628293
0.0323293124431929
0.0330292226988832
0.0346561804386247
0.0352792933770971
0.034856077527071
0.0346912808848607
0.0350632909779456
0.03603837094459
0.0369868955266513
0.0360605312661205
0.0362175635189508
0.038174907534538
0.0364498975086199
0.0336687848161568
0.0331252915869633
0.0332798688620058
0.0341012034163861
0.0348263637744927
0.0350701326555148
0.0363319457150688
0.0378359091709918
0.036117165095926
0.0333096136966544
0.0319846750267945
0.0319277868265916
0.0326344843944912
0.0337688801853517
0.0336291982487429
0.0334336469104694
0.0353134012896281
0.0346059376522461
0.0327973983136294
0.0324712172258894
0.0308859819306823
0.0310488678012607
0.0323638319213552
0.0330084288678959
0.0351636647238461
0.0376246336197382
0.0349756300552988
0.0324241073632673
0.0326716447413785
0.0345310483888887
0.0358505665587096
0.0349828900849144
0.0353612316160168
0.0362418832469287
0.0350785115037345
0.0343201540007457
0.0353212636399705
0.0359779152759082
0.0352932906074757
0.0350047887216394
0.0361805252028905
0.0397101379604148
0.0403830918866838
0.0344125306008528
0.0330881567959333
0.0350562893989407
0.035040444455451
0.0334102255598022
0.0329705606577582
0.033682618497993
0.0352657421053106
0.0368848461397055
0.0349601827715043
0.0322340312975028
0.0322728340419164
0.0335288670352044
0.0340092769450495
0.0342837821011081
0.0342976820781393
0.032949352948559
0.0327670116226161
0.0340125660308324
0.033394302880266
0.0318354414059667
0.0319934148447128
0.0335875356619493
0.0366221537010421
0.0417177057884137
0.0494936839539142
0.0584136149077773
0.0644366519729629
0.0648720143364389
0.0609971833410434
0.0558329996663588
0.0512849284585827
0.04769904812857
0.0449019964493713
0.0437494036502367
0.0450080405633953
0.047652425858546
0.0488061095197522
0.0471197327226832
0.0457635934527816
0.0448140049498658
0.04028965537634
0.0375603495669986
0.0382150119977133
0.0379069516193672
0.0361205545396294
0.0354367071467723
0.0353589577732669
0.0372188017789793
0.0408719286926438
0.0377687876286831
0.0335886193550671
0.0335403524017552
0.0343201536953715
0.0354177243252645
0.0362411660535401
0.037437228850386
0.0395979022360289
0.0417352671320123
0.043792310216291
0.04216167994839
0.0386285249038683
0.0383927467910125
0.0391564899315735
0.037134325823488
0.0356106548826118
0.0358406850510588
0.0358847450997844
0.0353153365338514
0.0357051716549767
0.0348561993198577
0.0329167627984859
0.0327335789485664
0.0323098288293968
0.0322214931091167
0.0326701250611873
0.0335348478777492
0.0351727875902837
0.0335054703349893
0.030289541827699
0.0299929672334448
0.0322710429230574
0.0381550233502819
0.0544425929221831
0.083282476125557
0.108252761905741
0.113623888372416
0.0983724475952076
0.0808999444037182
0.0681302625318797
0.0604782220937824
0.0553822850578836
0.0511467201184309
0.0485451626527264
0.047323919573896
0.0469198592559412
0.0455053795366592
0.0425488366401211
0.0421665905770695
0.0432104159956797
0.0434723771070236
0.0420459875074891
0.041402667697969
0.0421921214140654
0.0482563585967196
0.0678139161837119
0.0925900515997739
0.110771490596273
0.115111135114595
0.110006549731618
0.102054580257325
0.0955089889072875
0.0891281787289904
0.0836543415895486
0.0807247333977788
0.0763406655099921
0.0674985041630448
0.0626513514025459
0.0604754892689534
0.0577321025916553
0.0546800044633554
0.0531666546040657
0.0519969537594114
0.0511676609058128
0.0516842005605971
0.0494769346598023
0.0466649701491202
0.0462102169251887
0.046294373463727
0.0461113772559195
0.0453539556052264
0.04509132316313
0.0448465997456879
0.0440494720956275
0.0441105864546861
0.0449361221701571
0.0446863893020666
0.0445785403737098
0.0439083465618609
0.043049211065303
0.0436910191239719
0.0451665107104075
0.0456271198200092
0.0455488760965851
0.0464923577710777
0.0476617936408029
0.0486664303949759
0.0496599848545168
0.0509328659193358
0.0512896991400118
0.0509774423815368
0.0512185268676078
0.0512689914807026
0.0512343438983704
0.0516433903967848
0.0513264998666518
0.0501233366493148
0.0493348059367597
0.0490563067998348
0.0489530807996482
0.0487522479308434
0.0485837113202566
0.0484014939119476
0.0482098608908203
0.048140162134578
0.0479050051395142
0.0475115234097418
0.047025218704979
0.0460508762746406
0.0455279749800879
0.0458037980864919
0.0464385241940462
0.0470531815986603
0.0476583409702087
0.0478235505190392
0.0475571314182569
0.0470660005905549
0.0468789521965926
0.0468251120430196
0.0466336037903476
0.0467321762385124
0.0470817214627246
0.0471207125324461
0.0469888631197351
0.046873059629386
0.0466071423536353
0.0461092453056741
0.0454541425380585
0.0448903034201913
0.0445130860365542
0.044243770494284
0.0439976175768657
0.0437136538593164
0.0436228082810123
0.0434848050097876
0.0430897753011389
0.0427852653728002
0.0428146920574154
0.0429543937072218
0.0431063429094452
0.0432400160646241
0.0433050028798322
0.0433645317713314
0.043428438098475
0.0432506293701213
0.0429875277455653
0.0426554225375751
0.042213587041372
0.0418432351716419
0.0415585408100989
0.0412668482724309
0.0409318244389699
0.040743739098949
0.0406957148011782
0.0407196322628896
0.0407017100447
0.0406791313159968
0.0406743916512102
0.0406547357592596
0.0406398893060737
0.040572336079848
0.040463750353142
0.0403212130978396
0.0402149653205075
0.0400912749917258
0.0399779092702408
0.0398991462850405
0.0399056710596444
0.0399421117118298
0.0399511325790464
0.0399363428015094
0.0399708704525693
0.0400720543363405
0.0402279779880679
0.0403822406647489
0.0405441879386382
0.0408344317345988
0.0412267794930899
0.0416512021827222
0.0421681646636548
0.0427777520211447
0.0434848505609488
0.0441704041758819
0.0447261258306377
0.0453217517896301
0.0457416372390502
0.045958143441897
0.0463940080145054
0.0470450361410557
0.0479159438633357
0.0493850010053358
0.0515335169003381
0.0534988193108619
0.0542631814345523
0.0535618835069346
0.0522614279315739
0.050957823753376
0.0500837361300371
0.0497077659196773
0.0495438323210744
0.0493470306778424
0.0493759943030872
0.04966415331438
0.050370967521371
0.0518467074777823
0.054302589917565
0.0568709223199366
0.0581575539462331
0.0577238760950308
0.056150320543056
0.0545804652110379
0.0533875025391381
0.0525562715200458
0.0521044798521878
0.0518662139114784
0.0517397887168886
0.05159675956111
0.0515550737618428
0.0517753347327674
0.0521295653148495
0.0524974720867931
0.0529469672487923
0.0534926268048058
0.0542356614555845
0.0553117131710113
0.0563253511371597
0.0574084160112555
0.0587049408844321
0.0599575765715903
0.0609092572855932
0.0615478969224482
0.0621296787655493
0.0626178418302552
0.0627956602314278
0.0631660747082066
0.063766997854404
0.0644123580390539
0.0650853485622263
0.0655960122227709
0.0663016003543203
0.066951296293475
0.0674439710198188
0.0679790612471243
0.068742381480501
0.0695910198303634
0.0705649124178205
0.071592852304113
0.0726416919947268
0.0739898186215418
0.0757229268471244
0.0778189297816792
0.079975418408966
0.0819405561713709
0.0834248392553548
0.0841340115017963
0.0840383248309534
0.0834546808309209
0.0830676138655754
0.0827717587292189
0.0823842608093514
0.0821083922719418
0.0820612745631408
0.0821172674699457
0.0823223405375691
0.0824139367581762
0.0825875680221553
0.0829349114377957
0.0831549457739289
0.0834109836324106
0.0842191964484856
0.0865880020191421
0.0911966145989665
0.0976197388922639
0.104629149316942
0.110255277925223
0.112471721498557
0.110708053314492
0.107064793357782
0.10342211356787
0.100751954833976
0.0987223925102753
0.0968661737284555
0.0952853220600233
0.0937732630426813
0.0925935368473438
0.0917485730656598
0.0913249365158342
0.0918266092256369
0.0917892487162131
0.0902019143344127
0.0876439113238691
0.0852656024933274
0.0834509583992308
0.0822167733504356
0.0811179131009613
0.0800979296713581
0.0794274552890909
0.0789933953500383
0.0785639612375315
0.0782796616126689
0.0779655967896783
0.0770591268501893
0.0754144840659097
0.0738001007113489
0.0722790240651485
0.0708427079903254
0.0702189716082401
0.0703836915350196
0.0705794709148775
0.0701655061782867
0.0690668101655582
0.0674137956681849
0.0655896038830186
0.0638220317786012
0.0623143147302537
0.0611822169674847
0.0605478858295171
0.0602518881343515
0.0598857270181971
0.0595056128322122
0.0593014201119362
0.0592297868182479
0.0586385540363071
0.0576347881589083
0.0567015503349493
0.0556918189999011
0.0546712449684639
0.0536782528083946
0.0527632311143152
0.0522282779602359
0.0520255310142541
0.0520758605801922
0.0522131760055243
0.0523040742827706
0.0528505385827766
0.0542422167595904
0.0565600240048522
0.0595220358612632
0.0627145716543251
0.0652695233269918
0.0663933406334856
0.0660351435139625
0.0640175968266022
0.0605370139529183
0.0567455567664798
0.0534402949136335
0.0506640688517906
0.048524922056067
0.0473214725201689
0.0460083817757773
0.0445128410990474
0.0438754126906534
0.0439221216070198
0.0436653068288569
0.0434453146020352
0.0433681207934392
0.0434989722950205
0.0432252828006066
0.0420601448723857
0.0408419192399005
0.0397999355019833
0.0391839361970015
0.0385540337414868
0.0376166791075189
0.0369203097422306
0.0361997185106852
0.0355055540794868
0.0351222485354783
0.0351209921001648
0.035684847086348
0.0362748907521611
0.0374495036400372
0.0391349112711814
0.0405445666133606
0.041412781080217
0.0420153938244041
0.0417035687544406
0.0404807947820444
0.0391905234282845
0.0374645467592718
0.0359592267523656
0.0352096061354561
0.0343592405700323
0.0333553151193246
0.0328126699319197
0.0325848380020817
0.0322478738035452
0.031905411041724
0.0314867486943267
0.031363391774149
0.0316551084670872
0.03195502504601
0.0320619267834789
0.0322985158780474
0.033257359300965
0.0346923265275322
0.0358452536897773
0.0364086532563686
0.036656360300074
0.036128192844443
0.0355966576307785
0.0360600556556818
0.0366920585399718
0.0370372283594301
0.0378897323743878
0.0397644501799563
0.0419191953824058
0.0439157843045914
0.0467783295679365
0.0507592532792909
0.0548003537511995
0.0594107421575907
0.065137861131949
0.0726170816817887
0.0809340289867261
0.0882734011089602
0.0957807055265766
0.10392378011793
0.112476869385901
0.121118178448338
0.127879916227765
0.13166296597155
0.132891145506489
0.132681507829913
0.133154932343501
0.133248966673095
0.130077037068964
0.123017338690358
0.112579358915776
0.101996487901374
0.0927841634540089
0.0830916197307872
0.0730943036857623
0.064308108574084
0.0566084286711695
0.0502730763915783
0.0456657803772375
0.041406159185001
0.0383253799615409
0.0365079320588965
0.0350361144441317
0.0345475349477161
0.0334419562558224
0.0339176262044882
0.0394837450479159
0.0493965999104978
0.0628315496711343
0.0834926549944771
0.114238318871779
0.152047208204483
0.193910246890809
0.238767363151588
0.281786838296372
0.302635382905579
0.285864949601898
0.248812246649231
0.212485216883991
0.183305923327676
0.161392744815043
0.144278196614399
0.130579972808061
0.120134925115318
0.112022559295186
0.106869457076631
0.102458217968332
0.0971884826945282
0.0958812301706757
0.0958723440692204
0.0873954438548566
0.0809653798909094
0.0805740520363906
0.0809895841675096
0.0802904352726589
0.0774320498597527
0.073557246877562
0.0713013237038463
0.0708923691540372
0.0694229435471285
