1798
3999.43349933624
650.420452594757
1
2
4
0.0104509677343211
0.0105629934393234
0.0105927459191747
0.010475006365364
0.0104979353294263
0.0108543098326684
0.0114438663122063
0.0117011012876895
0.0117188512540849
0.0113386541406872
0.0109525264644871
0.0110000418032167
0.0112514066810671
0.0111575693230527
0.0106749804735975
0.011032383191552
0.0114467764608364
0.0109428850751677
0.0107331349305251
0.0111885940789007
0.0112356747254556
0.0107311573275937
0.0108336154851754
0.0110635842092843
0.0109490194488276
0.0111760759689632
0.0112369918315826
0.0110242225452615
0.0106999135354015
0.0104342446898137
0.0110526831280723
0.0116450028971498
0.0112077616980404
0.0107672799637378
0.0112209885641486
0.0117115429009931
0.0112641725369449
0.010591187086117
0.0104359402201343
0.0108611265938536
0.0111436018209486
0.01064909027287
0.0106538564847433
0.0111801099520609
0.0115608577571141
0.0118007300472561
0.0114594834857144
0.0109088100417836
0.0105528177726766
0.0107338851522342
0.0113472410188623
0.0118380860289743
0.0117927683669866
0.0111314365944563
0.0103625336813315
0.0101318705420933
0.0101451899042221
0.0100370193810919
0.0100605308388878
0.0106541386072482
0.0113114226644331
0.0108732002590816
0.0104862423388472
0.0109383614727351
0.0110060648205388
0.0107319319692216
0.0111610860554027
0.0118653800067345
0.0117644715543725
0.0106564335487957
0.00999670749962005
0.0101550013042201
0.010372764182342
0.0105121799554851
0.010865054266876
0.0111841247071611
0.0114231392158622
0.0117431164675978
0.0109887592366464
0.0101919857031949
0.0101769554867773
0.0102871447117358
0.0104019118160222
0.0106473526380674
0.0112691862622735
0.011749348576355
0.0107492357453017
0.00941262840274861
0.00936652426115844
0.00971026296258161
0.0101011850319583
0.0104543548099251
0.0106991753618205
0.0109546758346983
0.0111970965779397
0.0109828632916222
0.0103488059760321
0.0103743196163633
0.0102179629629427
0.0098572332191088
0.0100594060041589
0.0106136828753576
0.0109287123898767
0.0105239826591849
0.0106846046326284
0.0111281339924939
0.0106637657831215
0.0101811792510463
0.0102590434536659
0.0102122890467126
0.0104243046570139
0.0108619347724587
0.0104365436259188
0.0101704845177363
0.0105829973715053
0.0105302093015739
0.0104639312381075
0.0103733234554376
0.0100899828413842
0.0103361359645344
0.0105595498091139
0.0103382555387951
0.0101227805763903
0.00980278014618566
0.00986271216995168
0.0100441084680561
0.00962764474431281
0.00971641584450449
0.0104229207027799
0.0105910271644202
0.0102276023439545
0.0104678905152688
0.0112101996698906
0.0113963968066696
0.0106073417722557
0.00996203765113451
0.00930748025396831
0.00865061986650053
0.00897175284619876
0.00974645226528672
0.00997393108065846
0.00952833929279
0.00924565187609214
0.00912158929185548
0.009214505049744
0.00975210601179431
0.0101250351922355
0.0100965401727873
0.00968742913063333
0.00938425213990334
0.00947653585225514
0.00950907281671031
0.00995804575320615
0.010844759502776
0.010882984494788
0.00985194644765041
0.00918368771891756
0.0101386280560042
0.0109249253148766
0.0101694052362254
0.00961968725637279
0.0101999612685111
0.0108605458094157
0.0110832688783738
0.0111890191645504
0.0116245896801364
0.0120011141092702
0.0112646179944644
0.010702476017514
0.0103397731440089
0.0103273367505793
0.0109860768217355
0.0115949433051618
0.0115636082641266
0.0108675933387608
0.0106676078360343
0.0105795624479408
0.0102687808155435
0.0100024221665914
0.0103718259254436
0.0116489770317064
0.0124747241615448
0.0126213050825748
0.0126997880598757
0.0125749013130345
0.012405310301091
0.0120171756487405
0.0118938034654711
0.0120627545021606
0.0123276860863738
0.0127509883478825
0.0130902319125889
0.013345775491424
0.0130915780367875
0.0129144549595884
0.0133517335535968
0.0145219561671003
0.0154257843764347
0.0146502848089129
0.0132911662386972
0.0133821090818264
0.0141086994193757
0.0155258949669903
0.0153426419645466
0.0138521688200565
0.0144805803608417
0.0156764025555493
0.0155561880176544
0.0158267136043336
0.0164224816087482
0.0155477045708778
0.0148313842192821
0.0147595414955423
0.0146736181983409
0.0150520561442287
0.015621508910784
0.0156302487109085
0.0155420215831068
0.0156089876101644
0.0157185338374836
0.0156821561264222
0.0148973893038513
0.0145112992566244
0.014860743817233
0.0154655332689757
0.0159087141525055
0.0166025947207663
0.0170660083844219
0.0166371701492273
0.0154959280938163
0.015975210086376
0.0169928126595429
0.0164034544837145
0.0154313315943905
0.0157798339911463
0.0161760894038379
0.0162844518276556
0.0156804500659392
0.0163629626950711
0.0174325381491264
0.0169927378822923
0.0171548848325812
0.01774235293543
0.0183486933689739
0.0185057051379909
0.0180284557086976
0.0178591611349764
0.017919995631659
0.0176345952052721
0.0176894440663868
0.0184735708418289
0.0187028255594689
0.019379492507057
0.0198839126246488
0.0185058716726014
0.0177554198442835
0.0185744480328267
0.0197998198125748
0.0200987457818094
0.019528271852538
0.019344888018396
0.0187321365046821
0.0192044159326769
0.0206549503287276
0.0204035471687488
0.0199585659297953
0.0206990593080769
0.0207064744707286
0.0212931112581881
0.0217232059851607
0.0206452940726673
0.0209882019888064
0.0219334728798913
0.0210570900908342
0.0211249574206485
0.0216727605039769
0.0217945917945961
0.022766799171974
0.0229198052859176
0.0217214465004941
0.0219117077175239
0.022401309170987
0.0229944192357575
0.023350949224997
0.0233447341841295
0.0239994744140629
0.0237230794328382
0.0231616270852518
0.0236413175071736
0.0234367729038263
0.0231562949472841
0.0238745246660069
0.0243949023605173
0.0236499525471249
0.0229813300042603
0.0238211428364206
0.0249068647077143
0.0254377883515255
0.0254144074112857
0.0249120164312239
0.0245623167859032
0.0251770925532208
0.0263736526736676
0.0264264860067363
0.0258637809242004
0.0260728889483773
0.0261690684366399
0.0263468569784055
0.0268719848950273
0.0271548596669567
0.0268757199143663
0.0270380854149393
0.0277960877639885
0.0279050653532364
0.0270805373807746
0.0261584602794901
0.0273140731934907
0.0287138466690382
0.0290092404730071
0.0290591615091025
0.0287103526091842
0.0281334130694743
0.0281287630460194
0.0288255639558904
0.0288687695990717
0.0285245478452193
0.0290104162498716
0.0298086491526802
0.0297806129549238
0.029892797611776
0.0295351012814482
0.0294210178178725
0.029744100826127
0.0297262936919581
0.0297872172066792
0.0304025108029077
0.0307459911589816
0.0307875400669759
0.0303534438079034
0.0304565516383632
0.0307656023308834
0.0309969210611559
0.0311696903635392
0.0311016477537
0.0316437182682989
0.0316681497291535
0.0317734207700436
0.0322897975206284
0.0315792484308011
0.03134905680615
0.0324583651762935
0.0336179436525809
0.0335529877443082
0.032848329040128
0.0330025725588084
0.0333330749160293
0.0333607488073217
0.0334850704253507
0.0331656241170533
0.0334995351793642
0.0336638512874962
0.0337498273045799
0.0341113057945136
0.0345866226071241
0.034959274884849
0.0346521346045012
0.0345632829214971
0.0348628563343698
0.0349506349817301
0.0351091793061213
0.0355057906399589
0.0362285726359535
0.0364737458799625
0.0362675879016345
0.0361584260010751
0.0365884877524291
0.0373801333179325
0.0374475237527354
0.0369829979050908
0.0370045830525397
0.0370598117401175
0.0370545223311029
0.0375900849533833
0.0375662996838104
0.0375416220001117
0.0384209464081951
0.0383720938246594
0.0381508648437345
0.0380168007634641
0.0383201793609592
0.0390400789802899
0.0392636519597969
0.0388017633924201
0.0387233202380897
0.0389394697304004
0.0385626204434492
0.038064239209557
0.0378039890692684
0.0380752341533834
0.0383506154749277
0.0374846201216057
0.037501240457592
0.0383507673967246
0.0386449375636728
0.0384281469877607
0.0380128346983628
0.037388722913458
0.0372665121382843
0.0374723996610972
0.0375231082598786
0.0372092171283205
0.0370943484865276
0.0370598113582309
0.036692028160847
0.0368368974584134
0.0367083624592069
0.0361363095060051
0.0359128477740166
0.0363649749615208
0.0370394360878851
0.0373871608405037
0.037024374688471
0.0363438335490491
0.0365994952223849
0.0362778995923812
0.0359772698775113
0.0363212115778638
0.0365445406266637
0.0364776658643066
0.0356610441366105
0.0353282245353994
0.0354390483620745
0.0359582093709349
0.0357792024913114
0.0349986474669705
0.0350244543866661
0.0356828366870259
0.0356754053709937
0.0355943512821977
0.0355324925143845
0.0348645336335338
0.0341516602927597
0.0343990019805795
0.0344598885258049
0.0342575294698508
0.0344072275237792
0.0343624453741219
0.0343535788519446
0.034064161286692
0.0341531669310859
0.0338306251299745
0.0336248163707991
0.034300953770154
0.0343156376115752
0.0335450685866125
0.0331783955754836
0.0332519751852844
0.0329780905592192
0.0331280747207909
0.032954811802193
0.0329035152062796
0.0326638259646817
0.0321582856304694
0.0321757337465855
0.0319520902463688
0.0320630747568317
0.0325395624348017
0.0325102460741482
0.032219528002303
0.0324058571117842
0.0327435180747233
0.032296056957157
0.0316243722957804
0.0310242269673825
0.0309709401118794
0.0313943733439244
0.0316138946588685
0.0318618000928706
0.0318060479251209
0.0313803251507805
0.0310883567893706
0.0312350551337831
0.0313782253615679
0.0310670981945608
0.0309368732092894
0.0311833271680153
0.0309611414993656
0.0310079999601575
0.0314952085893802
0.0314814303704471
0.0315277583787393
0.0313914765706578
0.031150728456932
0.0311666543228692
0.031078947871858
0.0309296503469785
0.0312792334200248
0.0314029005114625
0.0311379076955805
0.0309726340480005
0.0310611463613845
0.0310439420865229
0.0308347870306898
0.031049228014855
0.0315364303382753
0.031248125059862
0.0307083893845442
0.0305383521533562
0.0306989082938418
0.0308829226244099
0.0305000733319473
0.0299276284741835
0.0298038726657816
0.0300273076582559
0.0301351865984385
0.0299335871551165
0.0297497963322051
0.0297111267086082
0.029388485835194
0.0289161908698234
0.0289660623372628
0.029566700892385
0.0298358976647093
0.0295852639948937
0.0287359429764813
0.0285367716387452
0.0289602466249374
0.0290731134186363
0.0283980518096577
0.0279248998677004
0.027990970766914
0.0277715711742456
0.0278140973272077
0.0283328815150882
0.0283077475826099
0.0280245561424265
0.0280185035745498
0.0277289488783399
0.0274170591972034
0.0275875594259509
0.0277817846497567
0.0280116293184369
0.0280966965028509
0.0281326270297296
0.0282701318854638
0.0282955369677621
0.028172222331225
0.028512377330046
0.02908072903512
0.0293874803621771
0.029386869939699
0.0292436010467236
0.0293049440582594
0.0296645594343196
0.0304075162068698
0.030958384942389
0.030820574301128
0.0307903137415048
0.0312944775791241
0.0315163954416823
0.0315063843802106
0.0316242912063818
0.0321499487503965
0.0325825792860158
0.0323558086865702
0.0320904327202043
0.0321234530701678
0.0321111997254419
0.0322911922459032
0.0328971975143857
0.0332746049032275
0.0332354219410106
0.0331544648124914
0.033531882227874
0.0340977049726677
0.0346843679989439
0.0351389768023954
0.0350532102127197
0.0351568367606622
0.0355101186005903
0.0353792170471046
0.0347515237160474
0.0340382058981603
0.0339795207760055
0.034149903368223
0.033992604847114
0.0338518481247844
0.0335950684829183
0.033005657581923
0.0325987298951453
0.0322500488685463
0.0318447317479384
0.0316405892783753
0.0314270637436091
0.0312451852843548
0.0312456931956216
0.0310920278730173
0.0309349683796266
0.0310701900050549
0.0311143345806948
0.0309565595060452
0.0309005284268093
0.0314661014285994
0.0319481181432172
0.0315846552066127
0.0311029340853179
0.0308582194797693
0.0306915289324655
0.0308946347946149
0.0310804822257345
0.0307795809871153
0.0305897437900401
0.0307279715082072
0.0307877192932179
0.0307666419564116
0.0307988109199712
0.0310516277207851
0.0312497762200341
0.0311461270857473
0.0308997275923792
0.0304154958784547
0.0297655074997168
0.0292755752051851
0.0288428562372152
0.0286120801127051
0.0288037981899683
0.0289232887373993
0.0285193262652093
0.0278481747337374
0.0274594849184838
0.0276407415869392
0.0279523038713179
0.0276191279717769
0.0272966881061455
0.0274063754980077
0.0273603838417118
0.027114491415793
0.0267238906494835
0.0264075946383373
0.026448134920301
0.02656309136104
0.0265653473472953
0.0263923104429662
0.0262343148323185
0.0260892632606484
0.0258609958006673
0.0257632601950958
0.025945655301899
0.0262252511798598
0.0258500301337358
0.0252027081777017
0.0251844256163744
0.0253728367162439
0.0254040012983271
0.02534852053681
0.025253912880841
0.0252960492353889
0.0253963378872123
0.0253589810680801
0.0252092667884431
0.0250835816925556
0.0249372159045221
0.0247396743634394
0.024635750972854
0.0246733440499144
0.0246891149522721
0.0246840339918488
0.0247358170671466
0.0246725259294934
0.0245428989291233
0.0244117541708219
0.0242062482432348
0.0242424038966106
0.0243294491953891
0.0242419892503693
0.024220900428744
0.024291934303429
0.0242402816328356
0.0240330261449411
0.0238914312108593
0.023919359874116
0.0241418188188864
0.0242501654658747
0.0238755027533113
0.0236422514483768
0.023772310749465
0.0237736851926429
0.0237050900174152
0.0236185039291905
0.0235356354568801
0.0235759916862194
0.0236092620022648
0.0234150992121596
0.0231822877032876
0.0233684631862577
0.0236126624445383
0.0234742026726839
0.0232815235367164
0.0230344916936692
0.0229204244525921
0.0231337569991405
0.023224081094135
0.0229907902706709
0.0227606414750537
0.0228104192733799
0.0229064431803412
0.0230443833274868
0.0229314091042515
0.0225279970780134
0.0225591318571545
0.0227852341738651
0.0226593130638193
0.0224645950443592
0.0224522955959834
0.0224332508940552
0.0223363826997225
0.0224384709921834
0.0225929061877649
0.0225449311071327
0.022502268393378
0.0226195174401055
0.0227563451379614
0.022803256495629
0.0226830809776615
0.022611658055494
0.0227444989528616
0.0227192638088912
0.0223367058595305
0.0222241791060593
0.0225296367836844
0.022506792777324
0.0221890716530809
0.0219834338164375
0.0218536137172708
0.0218550762295957
0.0218254146311861
0.0218210802386933
0.021786230251531
0.021571614626189
0.021599519798187
0.0216426507890322
0.0213123592278329
0.0211318007832371
0.0212696790572349
0.0213265967951546
0.0212023340472023
0.0211708963935232
0.021049056553158
0.0209771821196298
0.021271327469784
0.0213435417982595
0.0206781825331775
0.0200925725510451
0.0201607611348629
0.0208038966126497
0.0213337872465744
0.0207988980704791
0.0201482552670174
0.020166853374468
0.020047004673253
0.0198734126793284
0.0201231665634497
0.0199802798555736
0.019882097852013
0.0204956555228644
0.0207214310607744
0.0205619984890912
0.0200647748028792
0.0193805858375355
0.0191679378100631
0.0197722191002158
0.0200339464197519
0.019725986959701
0.0194959017894612
0.0194369507199292
0.0193545708746968
0.0193563026243985
0.018974998236405
0.018955561585811
0.0194835419706893
0.0195311986161825
0.0193429193137575
0.0191849787747751
0.0189712585049247
0.0189108856513495
0.0192867512080045
0.0192264643855689
0.0190459948450531
0.0189211397812565
0.0190894589276563
0.018942864321796
0.0191901319753129
0.0195423413486901
0.0189768004271516
0.0187838925106619
0.0191209908833647
0.0187970766626552
0.0186454610270402
0.0186844774285412
0.0188423083703623
0.0191147274701056
0.0191185138955089
0.0186823065053671
0.0184345906765248
0.0186212496069892
0.018641266720744
0.0181101119463793
0.0177719857851819
0.0182809140388617
0.0185950576228422
0.0186359066313584
0.0190538775733623
0.019109523538539
0.0187918770352818
0.0186548556531977
0.0187442659438718
0.018616849935756
0.0181703164807269
0.0178854254806679
0.017755080115217
0.0182434981914218
0.0189511910858713
0.0183279917924796
0.0180827826949525
0.0185400516323736
0.0180369411032494
0.0176598955109698
0.0180659846802384
0.0181877315811174
0.0183156078904392
0.0185525197201399
0.0187867092511777
0.0186768255076834
0.0183239866985449
0.0179081006645968
0.0177400210120362
0.0180650763372583
0.0182610332090734
0.0179688410924265
0.0182727312427271
0.0184264240204744
0.0176780775210662
0.017554177083971
0.0180992807270688
0.018038896183232
0.0176218495650946
0.0172571152395039
0.0174366525930748
0.0176427164618782
0.0178203645045043
0.0182238654767897
0.0180127440360958
0.0175240754325548
0.017657996215396
0.0177950214452736
0.0173660442319443
0.0171084113435933
0.0172348745982605
0.017387665552065
0.0171399172799012
0.0172738476548638
0.0174020281418094
0.0177691162855353
0.0179639504188285
0.017696016024887
0.0174313216477018
0.0174085702833787
0.0176122089166248
0.0175394414214815
0.01746106495315
0.0177225343782154
0.0175608137699255
0.0172537977829081
0.0176323542163319
0.0178498384568675
0.0176486471935775
0.017053609192425
0.016743150169131
0.0170048339044453
0.0171900836120208
0.0171852619666718
0.0172724378938756
0.0171787747835881
0.0166502346362831
0.0164325940991779
0.0166453673408052
0.0171500527877716
0.0177535354153503
0.0182638391803539
0.0179778665783398
0.017651144981582
0.0174369418753238
0.0174277290882189
0.0175662927451352
0.0175947410095774
0.0175353807976144
0.0173403093638362
0.0172189220283137
0.0173394370146832
0.0174142986165718
0.0174857985349889
0.0178371545114624
0.0181106570762586
0.0178354653037336
0.0174789273551339
0.0172600554192674
0.0173671687756413
0.0172701178796874
0.0170580284515966
0.0168358129621545
0.0170706528121808
0.0173918468091493
0.0172540007842169
0.0176009123074272
0.0174018181604636
0.0169783481568295
0.0172083149646384
0.0170655262741261
0.016934370963083
0.0169302514796672
0.0169163609305094
0.0172680005935838
0.0171714977866998
0.0165679453692331
0.0161742530857532
0.0156360368450431
0.0150008656397908
0.0149585553008259
0.015218750384946
0.0159135206909085
0.0161013460512966
0.0151168120535243
0.0153369582616066
0.0161150462324376
0.0145914987365647
0.013469146720905
0.0140869392856279
0.0145118147607926
0.0153163737814825
0.0149143145509169
0.0137890563914587
0.0126666995197
0.0127637435193557
0.0141370737780199
0.0136154145148266
0.0139229653880762
0.0146511555288222
0.0148381980233781
0.0145568695244118
0.0141331332284455
0.014013287474071
0.0130605190907867
0.0127888079776599
0.0132076861393297
0.0137758062868218
0.0138800885377208
0.0123717577848044
0.0119541078815583
0.0125629087753162
0.0121757273900214
0.0116519394163135
0.0124745486459641
0.0119929527863974
0.0115164490399322
0.0120746624692825
0.0111517834146738
0.0113402970170389
0.0122129915427482
0.0124327089276648
0.0111736610383387
0.0105199134305743
0.0118428137974385
0.0127039500788884
0.011708253276778
0.0101700408345796
0.00899183363438279
0.0081615612269805
0.00866533052443387
0.00828748226285633
0.00849548049086269
0.00970896994891419
0.0123651072847334
0.0131069333291911
0.0115924828116741
0.00911235521248436
0.00873570704225159
0.00941636765014266
0.00782810925221593
0.00664388897259931
0.0086624354419883
0.00992831622742077
0.0104239214619941
0.010563222576674
0.00971351533522754
0.0102801711871738
0.0108474861163852
0.0107467149465187
0.0104218762123428
0.0103627894292527
0.0108400317608811
0.0116737709398552
0.0121412842037071
0.0125149533884967
0.0117631212994935
0.0115977371231443
0.0128271191840894
0.0129855969358704
0.0131557799997592
0.0137150741130275
0.0140419997927347
0.0141014842916331
0.0133320314290564
0.012865327986953
0.0126089055187504
0.0133271765683924
0.0141806311079271
0.0147406867326623
0.0143768855242712
0.013475024712565
0.0131865316969883
0.0132405577961444
0.0132835652426079
0.0127542737094769
0.0121434907679513
0.0123973030334636
0.0132747267593152
0.0135187126842124
0.0139119408925652
0.0140144955989077
0.0140578450561454
0.0138816693680529
0.013699088362981
0.0132557676510315
0.0121576726609259
0.011517107294539
0.0113418912622256
0.0127525924605964
0.0136067747746889
0.0126478140291852
0.0121991878833368
0.012295143566629
0.0115196880200562
0.0113724267592099
0.0114366929782949
0.0111781992071383
0.0109896667167091
0.0110429704484162
0.0117209069772096
0.0110167407526742
0.00916323391969242
0.00849042069823818
0.00767968225586728
0.00685792872607809
0.00772486572116518
0.00973602367201955
0.00923506572582299
0.00875600673607258
0.00989566793386977
0.00886961348637786
0.0063807946726557
0.0063590274058736
0.00808211656239052
0.00778204954467523
0.00743892118905192
0.00874521847349306
0.00907909124161452
0.0103147434385072
0.0122605394764842
0.00991884963913091
0.00832565278875229
0.00724863866831758
0.00602141825335691
0.0085446107000276
0.0110769009050694
0.0108687182950557
0.00958120645464663
0.0103077516924284
0.0113818552612058
0.0103463112197789
0.0094980421628818
0.00990278261425753
0.00899875665955273
0.00789193300665289
0.00754144422645659
0.00896758649466567
0.00999506693847622
0.00877697124335993
0.00848729230208642
0.00926576091089496
0.0092011573023749
0.00891846056889111
0.00875706089327427
0.00807407493599395
0.00762795915855704
0.00859792179035038
0.0093216974883329
0.0103089059790715
0.0107257943944493
0.0106161620953182
0.0109531392149023
0.0109066935366646
0.0104035321548468
0.0109515870546767
0.0111663440666757
0.0109840620262977
0.0108604101697234
0.0112832221388705
0.012222444356094
0.0119293739723731
0.011929164030809
0.0128151384991046
0.0122905840406789
0.0111170376626019
0.0115823191913391
0.0129414944071202
0.0129633317041389
0.0127368741297572
0.0126997720746772
0.0123068989215518
0.0122717186788225
0.0124409336651525
0.0129170061129459
0.0132175365517406
0.0128396530334634
0.0125654354343828
0.0129457708384316
0.0134236285753765
0.0134001809018529
0.0127977447830957
0.0126797603366014
0.0131392656450823
0.013429623600252
0.0138127140149438
0.0138241558836845
0.0133512267849207
0.0131460152637814
0.0134021132117562
0.0131906688910496
0.0130919638449261
0.0134240767080866
0.0133290034920228
0.0129738526701643
0.0131803596024636
0.0130406868380199
0.0129353844839781
0.013374806301879
0.0138118038428198
0.0134985794824697
0.0129255069529368
0.0124734954937225
0.0125001703919405
0.0129890076956941
0.0132594300083733
0.0131152115672561
0.0130817109603187
0.013322831816839
0.0134468422782564
0.0133688671973541
0.0131925098800589
0.0130733123544266
0.0130873441981178
0.0130624052374172
0.0130211563780366
0.0129565576651377
0.0129664685185353
0.0130436634195673
0.0129185883763565
0.0127304202471896
0.0127638885860388
0.0127975436773685
0.0126376675854345
0.0125348471579828
0.0126861020035018
0.0130234317527109
0.0130045583171302
0.0127729762931228
0.0129366105813083
0.0131384598733902
0.0133174211136293
0.0134921859320604
0.0132322429343112
0.0127689832188102
0.0126558325626974
0.0129157791789534
0.0129684998880643
0.012711208262481
0.0126524300626276
0.012685485203892
0.0126628567510924
0.0126512325446484
0.0126015091918911
0.0124879670470035
0.0126611940528104
0.0130533256069854
0.0132501680923095
0.0127099745108376
0.0124319447684046
0.012529171545253
0.0123228805247806
0.0124282927913493
0.012762598230427
0.0127423051180842
0.0126849735645489
0.0127330113453887
0.0127456186041841
0.0129995302061952
0.0132687495692145
0.0130815678476698
0.0128908922812645
0.0130759480963915
0.0135539685662136
0.013984055286912
0.0140477987201467
0.0139115596954122
0.0145617573880739
0.0151795942233317
0.0145916734059611
0.0141459038392857
0.0140715323959948
0.014152676141733
0.0144334263276853
0.014497907158609
0.0145588556362714
0.0152229111715283
0.015553626708114
0.0148308613417478
0.0146754129547143
0.0151428011233403
0.0156841310713683
0.0162537646438215
0.0167772339980673
0.0172118346863781
0.0180782069117317
0.0193067520912347
0.0201356501240471
0.0211661033795025
0.0224390175654835
0.0236981933923344
0.0255980667368108
0.0277934376910329
0.0296656426174424
0.0316431730927364
0.0337187601525769
0.0345746401482269
0.035751324919369
0.037811254987276
0.0400284993130585
0.0418851327519927
0.0432729705251835
0.0452546238942918
0.0476077844179677
0.0495298052315713
0.0514234778327338
0.0539015562340865
0.0565856666749219
0.0588177933841661
0.061037704242039
0.0639148211349231
0.0678437004256278
0.069837508550297
0.068643538598249
0.0701681040303232
0.0728286284528696
0.0736399725195359
0.0740341263888712
0.0752289916959741
0.0765126094013432
0.078353873995457
0.0795254615187176
0.0776690578393623
0.0763526967025481
0.0765771199847408
0.0767315861946725
0.0759665132401409
0.0751662380502356
0.0739399891650789
0.0717168972809226
0.0709026976039224
0.0705629069368155
0.0676256657975932
0.0649818473939079
0.0641158902391025
0.0634658368218857
0.0624277374489754
0.0609430876426628
0.0596378250726113
0.0584862448928576
0.0573471451857433
0.0565839593186586
0.0562609894032099
0.0557587275628425
0.0549847002692879
0.0543005199350901
0.053808384862241
0.0535438010443103
0.0531681900972214
0.0526266044001506
0.0522986621566702
0.0523609199246285
0.0532858468049221
0.0538725441286815
0.0523237743722835
0.0521643636985873
0.0536759519282137
0.0540175433445581
0.054004566425147
0.0548682508294496
0.0558306707464263
0.058177111143215
0.0614305214029812
0.0603440914401051
0.0592938965138412
0.060697141060518
0.0627671297301009
0.0649117357594693
0.0664375410227482
0.06818797088891
0.0703504325904147
0.0721686258715387
0.0736424837427904
0.0719289160164345
0.0698912726505533
0.0711250517886347
0.0726576055063982
0.0719587131905809
0.0717047308587509
0.0722501629165689
0.0720294857827869
0.0714310739289875
0.0718825760859264
0.0705335503717408
0.0692749471107007
0.0693566487672789
0.06853041153919
0.0682365806957626
0.0679394500815586
0.0683286078495121
0.0690530792420951
0.0638340129099867
0.0593494478755323
0.0592452637737043
0.0597334275401132
0.0593895986038081
0.0571946406488808
0.0542352496583807
0.0534508662103748
0.0535234742238177
0.0516611198262408
0.0489490408257306
0.0471011575965857
0.0465862018661285
0.0461898566950437
0.0453810894790622
0.04523875834167
0.0455886314228653
0.0461124082764508
0.0459102123545776
0.0451238823394343
0.0459687471260775
0.0475349518170654
0.0477551426954811
0.0468154389096577
0.0475781972805757
0.0499255530702891
0.0509830809010928
0.0484909769235512
0.047882636104779
0.0491663293824251
0.0503156208067345
0.0506350329929895
0.0501627721749896
0.050098565343322
0.0502829490122997
0.050626683861143
0.0516493855045197
0.0516679296888862
0.0497144483293449
0.049243210452502
0.0496813627095665
0.0495590394385425
0.0494378946325126
0.0498879953805951
0.0501990888135725
0.0506890838203905
0.0516729893612674
0.0512608594721404
0.0505188746287751
0.0508458085344954
0.0516368465169186
0.0522659691251702
0.0525047492207987
0.0528925965294461
0.0532362589216322
0.0532459711845181
0.0537731775741943
0.054581597725614
0.0545205088563081
0.0545738020737459
0.0542659434112511
0.0535907927619218
0.0539010676810468
0.054617642478209
0.0542494514602456
0.0536704300367962
0.0537936965131413
0.0539862490615655
0.0538418459552303
0.0534886068581572
0.0532742420457856
0.0523222371885695
0.0512452611159509
0.0508890634726536
0.0502855035552822
0.049639261009045
0.0492767051931617
0.0483575207757068
0.0469624337410835
0.0461452113400158
0.04586979397941
0.0455909612610012
0.045285470498468
0.0451334508610112
0.0449510248873444
0.0447490452941034
0.0446517664792863
0.0446639054149803
0.0449334031704887
0.0451098662560504
0.0446814040421987
0.0444418985901985
0.0444609050079806
0.0444078807099174
0.0445029581756698
0.0447186240929408
0.044837762981626
0.0451380264604865
0.0454926731001544
0.0458888237574871
0.0461611074176363
0.0463219829713264
0.046393142784532
0.0464580259900618
0.0463968269072842
0.0462671553699952
0.046323924597384
0.0461043406324732
0.0457163054468723
0.045570791815339
0.04547754265086
0.0452448521524731
0.0450311510741438
0.0449071195381642
0.0447557839468708
0.0447882886218792
0.0448670472005067
0.0447431028270574
0.0445443677081006
0.0445099332889435
0.0446562027413021
0.0447956945543719
0.0447989171644345
0.0448773447057274
0.0450579997705089
0.0451059576578209
0.0451111627852624
0.0452596550446538
0.0453587445823142
0.0454647003129734
0.0456479444706987
0.0457933990191662
0.0459733070934712
0.046167354057297
0.0464641786986976
0.0469448932257761
0.0473175413206417
0.0476311040616847
0.0480941281456272
0.0485075222312212
0.0488491870212415
0.0491709837948896
0.0494372731499765
0.0497252213146311
0.0500952771315485
0.0504310451843561
0.05061082225584
0.050762714170201
0.05087539513206
0.0508254718925731
0.0507189348286263
0.0504615182666014
0.0502169022189868
0.0501046899518746
0.0498943269068127
0.0496956041811041
0.0495330396177945
0.0493342438133954
0.0493331654288898
0.0493327331836656
0.0493304304021447
0.0493448243016785
0.0494459179441743
0.0495609211901058
0.0496010322312576
0.0495864960664836
0.0497664237129691
0.0499188052736289
0.0501248740376191
0.0504043147221881
0.0506435567387934
0.0510418992791722
0.0514394000823866
0.0518463163089793
0.0525077382704874
0.0533266067709058
0.0542516707389058
0.0554649904600331
0.0568000921857119
0.0582264252283697
0.0596202970715611
0.0610315212391525
0.0624477619856431
0.0638369337478042
0.0649023609581006
0.0655279614800578
0.0657292409399891
0.0661035378156474
0.0668940735509133
0.0679141735620111
0.0690590621430979
0.0702368833761518
0.0712512807259433
0.0721814522937363
0.0731462309652331
0.074017179970601
0.0747859975591095
0.0756374885338585
0.076565196800396
0.0776306500925841
0.0789827437077546
0.0804401548963471
0.0816990502756856
0.083091384808946
0.0846212904330349
0.0861196493595515
0.087390501288378
0.088604988269378
0.0899737966659262
0.0912385732777481
0.0922804070674629
0.0932848448571561
0.0942722480808195
0.0953231870820236
0.0963374674272682
0.0974173111324997
0.0986476225700019
0.100076837205607
0.101463969992212
0.102931757801626
0.104608418189586
0.106462409465973
0.108082674324995
0.10957696149093
0.111248011640545
0.11311450530155
0.115050541445959
0.11673011545968
0.118148346068792
0.11943990369487
0.120745318403418
0.122303168004289
0.123881136573247
0.125472839819573
0.127366654882564
0.129464376103357
0.131487630842716
0.133796826209682
0.13639096139082
0.138891658437408
0.141305744656329
0.143662316006307
0.146139978154776
0.148790726777231
0.15122811740637
0.153661043679692
0.15638397943294
0.159123294909347
0.161832952825008
0.164558289164575
0.1672503335127
0.170021791323338
0.172714526943936
0.175355924945148
0.177702811570782
0.179636091772773
0.181390637693274
0.182886385715274
0.183686511021182
0.184277069401273
0.184704657648053
0.184828001283903
0.184712799490736
0.184502893602891
0.184175105679353
0.183870012607485
0.183392089472298
0.182868813608865
0.182529896952241
0.182045386626723
0.18120938019688
0.180340368766199
0.179192218205168
0.177898805217256
0.176330223465659
0.174367954026415
0.172530439756226
0.170748126467215
0.168440359494914
0.165920636976354
0.163369766166679
0.160987373208194
0.158289123591352
0.155458465023346
0.152761452728578
0.150177830317593
0.147561832433498
0.144859222787135
0.142080847190933
0.139425574991744
0.136747710201568
0.134151411670976
0.131432094461026
0.129027055519876
0.126752036768146
0.124396439435344
0.122120226909899
0.120074224195717
0.118196200203078
0.116173131724652
0.114142762640064
0.112500273915872
0.111154087455544
0.109976889705333
0.109238847530512
0.108603807979987
0.107813807960145
0.107063327767281
0.10641679868234
0.105785054903851
0.105036376022405
0.104244201770562
0.10340796846067
0.10290432314909
0.102571148198742
0.102316883200915
0.10209627565391
0.101722276695654
0.101312266008286
0.100986723707653
0.100140096373441
0.0985967569767299
0.0970263885780175
0.0955626930599799
0.0938718568626929
0.0923078562235158
0.0911093219772982
0.0900187019392285
0.0887782244382784
0.0878379400853374
0.0870145252758371
0.086158885670482
0.0851942031988445
0.0844502938411918
0.0837136334990171
0.0829790773693379
0.0828206951880106
0.0824898349016363
0.0820300858104865
0.0815178807517763
0.0809546350417004
0.0802926077273267
0.0791689047640059
0.078094358571746
0.0775555047535859
0.077113318766433
0.0765529070148788
0.0755505982279686
0.0743136435680777
0.0736544493495035
0.0730706036364323
0.0725323890004144
0.0719236062190838
0.0707284162103526
0.0698907006953523
0.0698068001568601
0.0700097826253307
0.0700281120754293
0.0698750161772549
0.0698386931853485
0.0697428661792194
0.0698665203705412
0.0702940165965262
0.0704192225716084
0.0701048191837358
0.0699511367315008
0.0698970822887266
0.0696972236810975
0.0695439681217506
0.0693225787221735
0.0689192162913339
0.0693426757556548
0.0702181721695871
0.0710941408666076
0.0726290992539145
0.0751205728321823
0.0784526049738374
0.082114378230576
0.0858931772181688
0.0891011876619862
0.0913805966034383
0.0924849348081619
0.0920695287707948
0.0913806845992938
0.0913533267445348
0.0914759883842764
0.0919795672008513
0.0931869874688654
0.0947518833612181
0.0967733686814734
0.0986590397645603
0.0994105628300518
0.0992243625462094
0.0990193564478923
0.0990713806067758
0.0993321373394886
0.09859722962841
0.0975282769327962
0.0978146669666633
0.098148468930051
0.0980374684265133
0.0979423944256723
0.0979334918758554
0.098024736227344
0.0977412366126719
0.097438860142708
0.0981336454024157
0.0982082081630403
0.0973651791951684
0.097130771343632
0.0967382139472071
0.0963354094524478
0.0961976296338039
0.0953443081694467
0.0949715257555884
0.0956589517905189
0.0960185398565109
0.0959155738179761
0.0958516272918664
0.096116861075261
0.096391832118729
0.0965985190863097
0.0971574261148319
0.0976459054648777
0.0975615354014592
0.0976092583014276
0.0984818457370118
0.099630049224478
0.101455298955434
0.101903440208548
0.101499897532739
0.102694041781557
0.103995680477637
0.107462591224557
0.111528448201351
0.112869538339248
0.113107912676889
0.113555799771101
0.114002264061083
0.112831867082745
0.109971978438983
0.108186112919473
0.110109540682925
0.112446115032656
0.111143489291401
0.109651911427138
0.109736514180964
0.110754198610787
0.112092600690972
0.112011932238358
0.110759717725054
0.112017511888257
0.113358067562897
0.114135951495961
0.115356642100344
0.1151401416348
0.113343402466502
0.115522338040645
0.118598589458064
0.116975800263252
