1798
3999.43349933624
650.420452594757
1
2
4
0.0123308817102556
0.0124768224250232
0.012698681565179
0.0125674974719289
0.0122922322228025
0.0126560683221214
0.0126069150993115
0.0121777822074985
0.0125767305425843
0.0129326722741952
0.0126686756170779
0.012676449081204
0.0124691102476672
0.0116583550681857
0.0115372608461956
0.0124454900553222
0.0127646455428136
0.0127256028383504
0.0125556163951497
0.0123405453457192
0.0123924965054981
0.0126818305729962
0.0129442534063745
0.01297733145443
0.012395498044717
0.0120826915378819
0.0120958669286243
0.0118147965332777
0.0120005515224525
0.0122864045695638
0.0118037252417385
0.0116939354580036
0.0121434489498919
0.0121270499814721
0.0116715849562452
0.0119558612204415
0.012605562861008
0.0128564506033104
0.0126049180216242
0.012352509921336
0.0123143130483023
0.0121088238108556
0.0124549237574202
0.0124778662116218
0.0116039823759947
0.0112817642592605
0.0114533802560526
0.0116282159589946
0.0117630218199375
0.0123781928819082
0.0127069670468746
0.0125999103789512
0.0119642964552645
0.011468789387407
0.0115243988368715
0.0118895806828901
0.0122960932090558
0.0123656421889178
0.0121379075652777
0.0119075221009541
0.0116926928920427
0.0115222887285242
0.011578051295235
0.0117592319609435
0.0117362861547216
0.0119052037888248
0.0120941992213011
0.012191839101205
0.0119512374705107
0.0116077372527397
0.011823694917944
0.0119663338379131
0.0115485315691825
0.0112121185207311
0.0111497374019995
0.0112446885581768
0.0115483326547257
0.0118469820345101
0.0116159109400192
0.0108811536201297
0.0110173501603093
0.0116292671136094
0.0116463682546707
0.0115589033534619
0.0120339251389252
0.0125538851756087
0.0125801026258185
0.0117514006622286
0.0109181359510794
0.0110308535540136
0.0110533381592214
0.0113777051948228
0.0117808661962444
0.0116020823355856
0.011423085358247
0.0114262859076945
0.0117503214730054
0.0121304288064712
0.0112484448206971
0.0107204890084867
0.0108655958870147
0.0111351217162073
0.0114364970558406
0.0109381270196288
0.0108974429786325
0.0112893622582592
0.0111056246831942
0.0112028925379936
0.011116191125545
0.0113075786397062
0.0112738066911988
0.0107064717686843
0.0109275295544702
0.0117854814561695
0.0122139139996214
0.0117488572542449
0.011752134400241
0.0118225873942019
0.0114137724984641
0.0111953797481577
0.0116698052157413
0.0116225393595798
0.0109849268766973
0.0107899401504507
0.0113864760985639
0.0115431225247059
0.0113198265866829
0.0114913087239719
0.0113193232825916
0.0107127565528488
0.0111182630363547
0.0119855562034951
0.0116290698083284
0.0105027177749024
0.0103889663477436
0.0108325586013152
0.0106751971554179
0.0101193027485432
0.0101680359501551
0.0101607858053917
0.01029725794892
0.0104506581189522
0.0103629024918201
0.0098872673258101
0.00944243849157001
0.0103185386161469
0.0111325633449056
0.0106792939070154
0.0105995332835349
0.0109284699626388
0.0109101169518046
0.0106851813497578
0.0108294489235331
0.0116996083294162
0.011260544192145
0.010612988125303
0.0112624287069105
0.0117935382292791
0.0125560021237199
0.0126676372181277
0.0120481903999939
0.0122290610601283
0.0127778042683348
0.0132621801489262
0.0138725576666945
0.0135240276663842
0.0123441695922557
0.0118516869769394
0.0120586161096785
0.0126379360736743
0.0127671223462008
0.0129727638351305
0.0129500443510299
0.0120396937521222
0.0121558999622262
0.0130679999217002
0.0130935253472931
0.013199166401681
0.0131426891479615
0.0124555442144271
0.0129616602335214
0.0133016140916771
0.0138363929753111
0.0145579852319249
0.0146444180469569
0.0149402084081444
0.0160726876723665
0.0160763665556622
0.0151662935466779
0.0143841232150369
0.0143084471367171
0.0145794168906595
0.015410398462806
0.0163098168273241
0.0164734952453802
0.0164106576610164
0.0169309016539368
0.0176555070271567
0.0177167752775232
0.0171467521984127
0.0170521610976091
0.0174150133700514
0.0182539280236906
0.018692707433913
0.0188772104244761
0.0185546467482248
0.0178099460442934
0.0178981535446728
0.0186321064234215
0.0186454856399663
0.0178846511425051
0.0180542125450726
0.0189292066908275
0.0182913715805094
0.0178456580289934
0.0185594254467127
0.018114059282468
0.0168729695656657
0.0166317119064465
0.0179793916922093
0.0185444000162652
0.0185258501264543
0.0180285710733826
0.0180347568107183
0.0180082262073311
0.0180744846819653
0.0183759862589511
0.0183906100489494
0.0180490942498725
0.0178712505062134
0.0185373813942828
0.0184739830462695
0.0178103326311162
0.0176083019477888
0.0183137689403267
0.0185988880526553
0.017762298613116
0.018536699696851
0.0193602990995257
0.0186617433482141
0.0183679186173168
0.0185945238623894
0.0191382559372634
0.0194842148002895
0.019000973453712
0.0184476517404302
0.018846970767242
0.019057103631267
0.0194657211454635
0.019902735336763
0.0198569102489113
0.0196368653058626
0.0199661023747234
0.0205654521109161
0.0205025165485777
0.0196327025235042
0.0196908546875232
0.0197804165186234
0.019560421348683
0.0204359241634676
0.0209187638472443
0.0212161495203995
0.0208988807181011
0.0204465183137072
0.0209077090088416
0.0215948507537825
0.0211394876499656
0.0203971769618481
0.0201020569553224
0.0202369813213607
0.0197523687615408
0.0203875745068359
0.0209875549398528
0.0204655706668337
0.0200906215638089
0.0210818242231709
0.0221582882306591
0.0227490639285621
0.0220492694850628
0.0217291257964603
0.0218340968741929
0.0225289750592034
0.0222017049238717
0.0211065489536873
0.0217332966212648
0.0223973077051763
0.0231846251197396
0.0224953495568264
0.0217471096024211
0.0221260346992205
0.0228361864823462
0.0238702446927308
0.0238925301001076
0.0237178988371516
0.0235372253593225
0.0226237085278043
0.0222811316613665
0.0223252854239424
0.0229608691238052
0.0238155879194658
0.0236093188393981
0.0239396802918021
0.0247076572193519
0.024702789855751
0.0248152389398908
0.0244884883567107
0.0247883213478717
0.0252532387280082
0.0253179285391628
0.0254236238508202
0.0250026820274762
0.0243598003516599
0.0248890639287083
0.0252222510826615
0.025030754026721
0.0255515889435816
0.025982857080752
0.0256980999356987
0.0255547933606728
0.0253944155848671
0.0259655685282944
0.0264155364186649
0.0260179901032467
0.0256634690283901
0.0258704091364847
0.0258477625477803
0.0254998738429726
0.026084272834665
0.0267666773347516
0.0268127741096159
0.0264407785594001
0.0263844356938531
0.0269438889225408
0.0276226973033361
0.028064191954412
0.0276193434017125
0.026614826911335
0.0266112744173698
0.0273452207553024
0.0276536900565126
0.0274809675844784
0.0267981885117289
0.0267203516357679
0.0272953745266434
0.027337190233142
0.0268813098608056
0.0264027569764084
0.0268887018173242
0.0273172753693169
0.0274074020087025
0.0276552829225899
0.0276810260153676
0.0273678747059293
0.0268405744856078
0.0274851211433651
0.0279075901050606
0.0270995345446523
0.0270764675840612
0.0278005358817744
0.027749282891483
0.0271656983138916
0.0276283126912917
0.0282808461898473
0.0279486840329228
0.0270346481947445
0.0268908298237669
0.0272462405907959
0.0276391907530692
0.028128886727627
0.0284932617769913
0.0281713652752481
0.0276446423345153
0.02749940478488
0.028028122784989
0.028347442185694
0.0280400331515815
0.0278694238816475
0.0279752305090052
0.0282845116071066
0.0283229961676207
0.0282663926996659
0.0283012502775191
0.0284953315171491
0.0287654075889487
0.0291692060537003
0.0287737955145495
0.0278152204754195
0.0273573591110137
0.0279981716098964
0.0286277704770055
0.0282694266505934
0.0281385174260662
0.0281988261541797
0.0278035217509278
0.0273642656354276
0.0280244162969822
0.0283961272821769
0.0280027432601422
0.027877309722589
0.0279518645581043
0.0278460414318555
0.0279205883506325
0.0280612170304258
0.0279351897452492
0.0276777190586328
0.0273582600348095
0.0273260191711488
0.0278005757929374
0.0278751213009671
0.0280125662699527
0.0282815991869083
0.0278861808305009
0.0274408117598839
0.0276505687637338
0.0276518704840518
0.0273048283549271
0.0275004068665787
0.0274614658558005
0.0269240642948936
0.0269069566839801
0.0275655160957164
0.0274378000942465
0.0269155164314014
0.0268634011790468
0.0266930070638257
0.0266021600893087
0.0269508140794571
0.0272243918741264
0.0269369465102023
0.0264982536872469
0.0263186079824327
0.0266981891247044
0.0272796120002612
0.027349241036314
0.0264131624907202
0.0257427478030655
0.0258663796248736
0.0263682411904846
0.0268836477128838
0.0265091104635502
0.0260832138652538
0.0260096499333665
0.0257373357189786
0.0260294943542592
0.0268564686435924
0.0266714044547057
0.02576828833236
0.0255200852228174
0.0258100300005177
0.0257921462534444
0.0255947232407612
0.0257632813847517
0.0256423667270292
0.0249789136945039
0.0248679189421701
0.0250934276401179
0.0252763968322824
0.0251868256832682
0.0251564425979667
0.0254081299126797
0.0250654905973663
0.0244328919929971
0.0244370186871258
0.0247246887750056
0.024980851847348
0.0249788832115216
0.0245021143525588
0.0241105461025048
0.0238894385797701
0.0236673946313155
0.023731154224345
0.0241969219712849
0.0242885480045176
0.0238898582827141
0.0238065906488574
0.0243512996770468
0.0242452183613592
0.0236627951867236
0.0236690159255735
0.0238554620131021
0.0238641694227466
0.0236881089980481
0.0234507807958491
0.0235255725537742
0.0235933360706873
0.0232519541743528
0.0230613495441653
0.0229827104003255
0.0229146363540255
0.0233169711854901
0.023462481232861
0.0232286054736186
0.0233054096443707
0.0233589917274631
0.0230067798322317
0.0228062577044145
0.0230116684505115
0.0229032174212213
0.0226257493038918
0.0227407537194623
0.0227846188820201
0.0228723996227057
0.0228405403773758
0.0226030438829416
0.0226616688738375
0.0224924718876163
0.0222277235421457
0.0223503838572664
0.0225561089733044
0.0224940471903707
0.0221676800907742
0.0220861470664777
0.021970867858921
0.0219203198405413
0.0221475577266018
0.0222446312182984
0.0221278838490989
0.0217995148281842
0.0216199852872367
0.0214484247246898
0.0214669530614167
0.021809458428274
0.0218850239244337
0.0217177927792733
0.0215261254973867
0.0213270259129031
0.0211730282224689
0.021245535971372
0.0213806524882365
0.0214220242904778
0.0214050295050912
0.0214071762370543
0.0213058073076822
0.021142477713103
0.0209660119047639
0.0207590682333609
0.0210082088619889
0.0213084605599347
0.0211855492621643
0.0211308976827582
0.0211850488355438
0.0211620459928434
0.0211729441905014
0.0210865522148693
0.0209607668209064
0.0209572627423524
0.0208015643288615
0.0205416548972867
0.02096583057985
0.02168325365838
0.0215003774052919
0.0211335578862032
0.0212554156584729
0.0211449169203829
0.0210749994689778
0.0215024414336703
0.02169908302196
0.0216112571404633
0.0214419872840399
0.0212329237253718
0.0213826358767427
0.0215287181828611
0.0217865940162234
0.022111568241964
0.0218724437218577
0.0216319464464377
0.0220181059702142
0.0222158800949332
0.0216632368527797
0.0215895395012427
0.0221809950178088
0.0224684252788894
0.0224830080597892
0.0224858267834557
0.0225492386994196
0.0226492762433131
0.0227250088768568
0.0227864173594284
0.0228955714191137
0.0229031980339404
0.0227748396473023
0.0226409657290105
0.0226635698608584
0.0227795045336758
0.0225559262538286
0.022297795511173
0.022100860295418
0.0216400078001398
0.0214790971522626
0.0217282309549774
0.0217709268673681
0.0217048139568683
0.0215230477702253
0.0212955725824783
0.021336484337056
0.0215842522402897
0.0215841868939532
0.0212908806043849
0.0212166279485668
0.02140865025756
0.0215093223459687
0.021469514370221
0.0211859040201002
0.0209801329665667
0.0210718924622986
0.0213476045687435
0.0213564125021628
0.0209202577523544
0.0207401626310216
0.0209040664154951
0.0209861686248813
0.0210084749442001
0.0209232475997561
0.0208827549550521
0.0211942844071829
0.0212779182468411
0.0211010775860717
0.0210920900050082
0.0209686529669713
0.0207709229268862
0.0208745391209577
0.0210495516364764
0.0207386922871829
0.0204838861780063
0.0206141311329879
0.0203882029731984
0.0200563768061161
0.0198870176372614
0.0199540812205514
0.0200306877721717
0.0197973450137749
0.0198246116001363
0.0199779808523916
0.0197639627035749
0.0194535355545145
0.0191856310306412
0.0191111885266446
0.0191727301608027
0.0193621283028358
0.0194722135791461
0.0193587223930927
0.019129674606592
0.0191725534787465
0.0192761289888298
0.019115586990795
0.0191720793038602
0.0192998565257502
0.0192680503469286
0.019128927723429
0.0189482819213989
0.0188177872490735
0.0186938739066996
0.0186976965957778
0.0186924525725004
0.0187360488162137
0.0186277268985952
0.0184720912469536
0.0186705593277972
0.0189507412218142
0.0189095091300849
0.0187252036477558
0.0187425762442072
0.0186091177719491
0.0183704519390254
0.0182104843781954
0.0182996947442785
0.0185024101339883
0.0184364597668273
0.0184267207470536
0.0184381219987057
0.0185011399077258
0.0186080805005556
0.0184635959797371
0.0181080728994043
0.0182047878447504
0.0184482896988572
0.0183363897250047
0.0182700452502841
0.0181937735803941
0.0180051141112965
0.0178864511849211
0.0178634702394873
0.017792168065114
0.0178574942970739
0.0181104032168435
0.0181933313657384
0.0181620607391388
0.0179431865779181
0.0177194994035169
0.0178745071838324
0.0180641322747774
0.0182324919208146
0.0182691627563554
0.0179706932597133
0.0177517741131041
0.0178020282373379
0.0179463244598954
0.0179111268628155
0.0179018670562693
0.0177862462173921
0.017707768918418
0.0178183470968967
0.0177472436358139
0.0174375836952793
0.0172755353964028
0.0174466914502531
0.0176226480363214
0.0175424273554424
0.0174790934038647
0.0175287525005802
0.0174516902039061
0.0174190054158429
0.0174851235509765
0.0174837687622472
0.0175079535540893
0.0174186053152634
0.0173324470815137
0.0173033741961105
0.0173071989273998
0.0174879724302943
0.0175836989366821
0.0175476770409622
0.0174449016879698
0.0174789458503312
0.0174265913519743
0.0173046946891197
0.0173896621058852
0.0173177781210562
0.0171627496258286
0.0172343237493178
0.0175620978807667
0.0175779599104674
0.0173302750194511
0.0170566074120041
0.0170298310491549
0.0172158703108835
0.0172251666295254
0.0169683526038142
0.0168236828686312
0.0168595232497575
0.0168918376366888
0.0167182882561379
0.0166170377355398
0.0167955193629223
0.0167950850406516
0.016631211316853
0.0164863396803479
0.0164089465997153
0.0165923681813295
0.0166213963360865
0.0163838682403028
0.0161328655406821
0.0160349872431203
0.0164204145614864
0.0163658355118202
0.0159590438533463
0.0162515505971731
0.016122145455686
0.015645444189362
0.0158739318967286
0.0165406703985836
0.0164662287204831
0.0155943682665226
0.0150801047119161
0.0151919546423889
0.0154619160054473
0.0155810394754907
0.0157312108033437
0.0157469034766609
0.0153182220523657
0.0153290401806577
0.0159400404935513
0.0160301724914794
0.015806373625708
0.015821511639662
0.0155292795116874
0.0150762677880138
0.0149476112668425
0.0147684656675428
0.0148129406370947
0.0151311569468089
0.0153574866875262
0.0153957694170828
0.0155360645992131
0.015218184084048
0.015029859941473
0.0151356270112903
0.0149614074062375
0.0147429901247198
0.0147731613099563
0.0150728701266228
0.0147216039965874
0.0143401959801895
0.0145720318915261
0.0152052390590169
0.0150578085688014
0.0151432525708388
0.0155958291676842
0.0153001971787976
0.0147463760485372
0.0146489524702693
0.0148145592864403
0.0149830929740955
0.0148399950138832
0.014663653471314
0.0146571401348237
0.0148862565810337
0.0150932239561008
0.0148408337570318
0.0146311520861211
0.0146744725542059
0.0147442459073501
0.0147337662053459
0.0147441100865109
0.0148269178371498
0.0145195278485888
0.014382568550373
0.0145102650982074
0.0146044242216439
0.0149001941492487
0.0151059752229148
0.0148022273606821
0.0146987379653151
0.014759359234747
0.0147512223556912
0.0141410351081079
0.0140401965507068
0.0145868495329998
0.0144490914549982
0.0145687698509183
0.0147177124460147
0.0142860401050534
0.0145891521763598
0.0149494942276604
0.0144395110823746
0.0138083649150629
0.0138954111525323
0.0142797487271552
0.0145453921859752
0.0141133730525343
0.0139705477273813
0.0147985937608737
0.0153000581610148
0.0153686369707119
0.0151086551274113
0.0144501339022404
0.0143061336520424
0.0144853382553333
0.0144390286830304
0.0144304417434601
0.0148471860170703
0.0143146977470803
0.0137473015619312
0.0141811603363211
0.0147235394265989
0.0145970669883323
0.0143279331138531
0.014327222129469
0.0141072461556648
0.013793512399705
0.0138476074463918
0.0141092603194996
0.0141841837277415
0.0141835895857326
0.0145423604018794
0.0141674907323338
0.0140033010396082
0.0144307574947788
0.0145731210602675
0.0142912564281135
0.0144629072336957
0.0146334061686925
0.0147008535935517
0.0146059019532782
0.0140886445964964
0.0136757630410115
0.0133897056170616
0.013087708439523
0.0131577648154612
0.0138390768232089
0.0146285131023818
0.0146168083570621
0.0143661516550153
0.0139669604422811
0.0139250233179276
0.0139554761271605
0.0140593600094498
0.0142896055543135
0.0142579882462524
0.014121769142612
0.0139801073030994
0.0140821241046449
0.0142859408212725
0.0143054154480925
0.0144627953306976
0.0142691869744745
0.0137789864171023
0.0141603666604798
0.0151325566972982
0.0149973945403616
0.0146739200120697
0.0148714899696918
0.0148795386760747
0.0142492519178782
0.0140358629314255
0.0141078646944955
0.0143785844542369
0.0143841616176891
0.0141998601181242
0.0143864580516979
0.0141605049491959
0.0140799218199385
0.0137491542984094
0.0132020253323992
0.0133551272461869
0.014033323045378
0.0142492611146359
0.0141055996189645
0.0145860822875087
0.014626521470898
0.0137665246581221
0.013309739367371
0.0133566633192839
0.0136448891584063
0.0137295489123583
0.0135060597618227
0.0129224176638254
0.0121479453900646
0.0123192116657895
0.012213666429844
0.0124075727721853
0.0125392351404275
0.0127951103882115
0.012698524857619
0.0111432219483467
0.0107966975133767
0.0115560627837169
0.0105364029080784
0.0101053080408869
0.0110966620479537
0.0115949077756956
0.011813605696016
0.0113242256548028
0.0101433755064721
0.0106321595908112
0.0112132806278971
0.0108724835581171
0.0104381603209077
0.0102854608037052
0.0109812668249662
0.0107259084643054
0.0101939009741993
0.00990998377541813
0.00962093343572561
0.0102676334494669
0.010199187518
0.00999881972689323
0.0102535871141199
0.0105260626176844
0.00979413648599692
0.00948771449225044
0.00988665929783573
0.00883719006746841
0.00909659988163695
0.00979975816646421
0.00937142242593195
0.00987481595107479
0.00950052487050838
0.00824226260669585
0.00791217839620409
0.00805972748451275
0.00848486450596373
0.0081699210450548
0.00702987047597273
0.00615555950323775
0.00751617998477768
0.00927906344856608
0.00950838388365983
0.00801654215689326
0.00765415037221814
0.00773434438188214
0.00723726410389938
0.00561278516393136
0.00580573975659535
0.00698021772168973
0.00778046767807602
0.00875385771792355
0.00723872767782463
0.00492763613541899
0.00515768496163974
0.00453496630738253
0.00435678473545209
0.00729199513776785
0.00774733794070809
0.00761422173357389
0.00836872672825145
0.00938576778857028
0.00960884725114362
0.00847197082223693
0.00792719836564144
0.00833328427941159
0.00917039279089571
0.00929061884952117
0.00917906379028728
0.00933164354838212
0.00983941270909118
0.0102965197676379
0.0102209587312462
0.0103075058862986
0.0105327805458424
0.010262695990737
0.0102715121453632
0.0107292771155221
0.0110338854117239
0.0106653699280626
0.0098674361863099
0.0101459060943392
0.011082783199666
0.0110810300324792
0.0102288212985572
0.0102171974589892
0.0102827466838738
0.00997983780525867
0.0100081430190405
0.0108118640251503
0.0107004382642286
0.0107117924448371
0.0107402882181081
0.0108530058145557
0.0107524349120559
0.0104789949656914
0.0103675653319759
0.0105549664039305
0.00974031689586003
0.00891303309681299
0.00993346491616249
0.01075434299847
0.0107285271959889
0.0101714724915545
0.00945444174206532
0.00925644664899299
0.00936720134344911
0.00971459092834766
0.00990141329692699
0.00895424182168948
0.00844050802405651
0.00839648492636761
0.00743994631270192
0.00806207482785004
0.00967328964058447
0.00909238570741204
0.0094628529158913
0.00837430275775081
0.00639040107969161
0.00577842467326897
0.00586496853042776
0.00495325858136787
0.00613249516353451
0.00776567272295671
0.00678694530408315
0.00625326958635371
0.00581505543336409
0.00608431754230612
0.00686436418383293
0.00586596032067189
0.00512584709979866
0.00640916922231001
0.00837610567536097
0.00816049679043616
0.00697984170402367
0.00806932683336256
0.00795699498497134
0.00782803418694981
0.00783494472790349
0.00751645960754412
0.00698805202486918
0.00773347549593759
0.00903728576861828
0.00888883616722652
0.00781270609184689
0.00752393688759331
0.00740656332469557
0.00812511576854545
0.00878902152873218
0.00713072054211751
0.00526865225519361
0.00418429322607833
0.0044434322022258
0.00593324051513315
0.00732820770792541
0.0084334947653302
0.00907987643095382
0.00903975754395571
0.00795428752003785
0.00817602022490345
0.00866741907697968
0.00841702627012251
0.0091340258335102
0.00914404439291895
0.00845478903435406
0.00913472385935649
0.00952643364033742
0.00889492570407712
0.00859024013493013
0.00953288211431053
0.0094484620148673
0.00902354219792313
0.0104089360672037
0.0111209135303857
0.0104107632816726
0.00995823038254252
0.0104728635880432
0.0101583185026415
0.0096317824397719
0.00980331103414049
0.00976841536552635
0.00988036658564134
0.0102302866380607
0.0105771284037585
0.0107091352358482
0.0107375733539012
0.0107619186897622
0.0113300555569424
0.0115270402129651
0.0109927421233057
0.0108021278092276
0.0109596289770862
0.0111998469160909
0.0111365874027165
0.0109779861840385
0.0109878249719129
0.0109963055359695
0.0109635746210498
0.0111301501200659
0.0110374385195319
0.0106697530029499
0.0111850666958357
0.0118644298533993
0.0118617868429891
0.0119383232845314
0.011893156008022
0.011583922858442
0.0114576742685738
0.011296419255716
0.0112841314634671
0.0112989015234835
0.0110252142696011
0.0112876053322149
0.0114678061850338
0.0111947563271381
0.0112052399757496
0.0109204781173842
0.0108260260773614
0.0115476040152901
0.0120478723185606
0.0118285486593275
0.0111109657194516
0.0105620221339556
0.0106304772305646
0.0110219848480519
0.0112060333580872
0.0111110391731798
0.0112967657045612
0.0115939483974128
0.0115901541182219
0.0113948709280316
0.0111786594205475
0.0111577563654863
0.0114021705450802
0.0112213126655947
0.0109137593590284
0.0110829209663327
0.0114003646632396
0.0116127973415178
0.0115647460703736
0.0115056700326461
0.0115437777622897
0.0115291086010382
0.0114196550612064
0.0114633530195682
0.011660560366453
0.0115436776711045
0.0115009583070127
0.0118500473424193
0.0118618751806982
0.0114202750811207
0.0114154093697731
0.0116360458379539
0.0116589123865276
0.0117059453545965
0.0118939007004428
0.0119683253396797
0.0119619614660727
0.0119269543478215
0.0120273594156738
0.0120590282661788
0.0117791001240347
0.0115675008662653
0.0116762737131557
0.0120358919764094
0.0122455174253675
0.0122630997773899
0.0123264541736106
0.0122988550289162
0.0122256072176109
0.0125898136556096
0.0130362928011942
0.0128882556485841
0.0127451447354793
0.0129832049000632
0.0131418817072089
0.0134700736210398
0.0137618937927832
0.0136154174500846
0.0139427426665719
0.0140479026500489
0.0135055680989978
0.0135683702878757
0.013535705571104
0.0135592869408769
0.0138675019477886
0.0140650806712736
0.014348145642935
0.0149344802309332
0.015280182655195
0.0148626295094019
0.0144486282779573
0.014540848760223
0.014972104484353
0.0155265191180864
0.015919181552174
0.0159436132233697
0.0162719658424626
0.0167993401877667
0.0166572782769402
0.0170950783749481
0.0176865848711856
0.0177961344294467
0.01839756567105
0.0192366724761269
0.0199755513454593
0.0207993681143953
0.021343893146447
0.0213507443908632
0.0221251600557973
0.0230484911504425
0.0238599548935994
0.0246417734089523
0.0249848468249632
0.0255880513784629
0.0263237159606627
0.0268289311246732
0.0277410157125018
0.0288077170064399
0.0293218735530698
0.0298834574693474
0.0307198528486739
0.0314323686408176
0.0323609914511848
0.0325210861709999
0.0319094829354714
0.0326437744155336
0.0335765512128525
0.0333849601366726
0.0334535216135091
0.0341400783435753
0.0346855996378157
0.035354048849136
0.0354938413692497
0.0346995960634021
0.0345960510020514
0.0349213543364923
0.0352025026885135
0.0350921924313209
0.0349116647696705
0.0347975112348535
0.0343487970351614
0.0344013370435634
0.0346711343254283
0.0339726178659752
0.0334892904099027
0.0336085215640559
0.0336350148628559
0.0336907079139275
0.0338932956029529
0.033971333672487
0.0338044281785861
0.0336896184602638
0.0337999548229095
0.0340343239229485
0.0340313015342213
0.0340315189579406
0.0341503625844338
0.0339840993589986
0.0336634879912393
0.0335171609178629
0.0333481804126277
0.0329640255884031
0.0325798127824944
0.0326759550556352
0.0324779806932118
0.0313754247176624
0.0311070211176861
0.0313449843484843
0.03092492771521
0.0304155128837371
0.0303205081664352
0.0304767840781122
0.0312083651520704
0.0316612404107122
0.0300729053766835
0.0294569971492494
0.0295674102256904
0.029534834734281
0.0296271415619179
0.0294810071973051
0.0296875981289988
0.0297975132166362
0.029594560957727
0.0295426633683513
0.0284339757712949
0.0275821714051354
0.028053760865022
0.0281853812898869
0.0275273106711652
0.0275749770976344
0.0277325555994908
0.027213405651042
0.0268553431465194
0.0271719013436303
0.0269022868799698
0.0264879787480203
0.0262832905776213
0.0261873738177344
0.0266814254125847
0.026961430958877
0.0273375782265972
0.027810781948859
0.0265443979697644
0.0257058450303897
0.0258159123988553
0.0258492260890775
0.0256200191892813
0.0249524474921356
0.0243785641047801
0.0242406214528523
0.0241084446064782
0.0235515192278758
0.0229870778945269
0.02256328426466
0.02234928661074
0.0222790321360294
0.0222907724462365
0.0225127064167544
0.022776886098448
0.023095587131862
0.0232339774330952
0.0234987213918467
0.0242975121213172
0.0252016051361358
0.0255408290736715
0.0255424645371041
0.0260613495394167
0.0268695484236976
0.0271234911728813
0.026129449356112
0.0259627846357326
0.0264770887019504
0.0268970840470525
0.0268356305401302
0.0265394343823322
0.0262541061744319
0.0262615897794663
0.026550220961143
0.0270308740077672
0.0269385099483686
0.0262047486231112
0.0266876661756704
0.0274537500599821
0.0277723263247084
0.0281258346428781
0.0287830631208383
0.0291761800813784
0.029599478983317
0.0301321241956513
0.0297708610264773
0.0294027012247897
0.029506501055609
0.0295799488025431
0.0295249277888236
0.0293728912813689
0.029350186746706
0.0291007389953367
0.028664802114372
0.0286941501310343
0.0287024015942661
0.0284451738946872
0.0283771855658887
0.0279603303812873
0.0275702292241688
0.0276552937724501
0.0278610811917751
0.0277122903255241
0.0274912201176843
0.0274515785804286
0.027534570575154
0.0275339820066656
0.0274507618806232
0.0274683364394188
0.0272404318099422
0.0268653091764309
0.0267047852690522
0.0265767286374437
0.0264324787564551
0.0263945027197795
0.0261691454921717
0.0257591303336619
0.0253529975227397
0.0251501483132239
0.0251394413831075
0.0250136795636738
0.0248777192875728
0.0247729303392278
0.0247459907326034
0.0248791232338584
0.0248377673521585
0.0247670965338606
0.024770976022796
0.0245476509824387
0.0244715313264113
0.0247720855026257
0.0249504690983512
0.0249792306894272
0.0249691360436824
0.0248924662004157
0.0247535156771046
0.0247216159294082
0.0247844764880688
0.0246687723706422
0.0244370463298237
0.0240953390785746
0.0239098685020273
0.0236875199814488
0.0235083531189421
0.0234172982094023
0.0232181689287741
0.0230434920421147
0.022968686945191
0.0229021206278509
0.0227943486721493
0.0227185823429599
0.0226695351884939
0.0226385808496263
0.0225311625390276
0.0224826781509812
0.0225859438928349
0.0227525525994838
0.0228784167842752
0.0231286801586496
0.0232909853626514
0.023224146017865
0.0234709785130664
0.0238043567465114
0.0239764852523287
0.0242491509373974
0.0244529440923747
0.0245288228369396
0.0245940049288721
0.0246543268203811
0.0246614279165097
0.024542960503617
0.0244799448138279
0.0244884546470667
0.0244059745586958
0.0243984167800417
0.024540451467945
0.0246695310852321
0.0248386990772679
0.025018751326504
0.0251813237633794
0.0253367244566152
0.0254828280639513
0.0256646594622459
0.0258772930082348
0.0259336497911514
0.0260362329138547
0.0263310232161035
0.0265714936590218
0.0266064858842566
0.0266099393609202
0.026776752077633
0.0269784458601349
0.0270605517724205
0.0272353600166315
0.0275249059369691
0.0277747473306468
0.0280166221617422
0.0283441047904637
0.0286830584114787
0.0289160132376012
0.0291079434597703
0.0293788604958758
0.0297489523111999
0.0301172750651283
0.0306014443681664
0.0311246338686112
0.0315945185665558
0.0320807784940657
0.0326984058952531
0.0332911087470759
0.0338892932992302
0.034765407505718
0.0356450677626613
0.0362765686800619
0.0370170758899506
0.0381018863539696
0.0393298971468736
0.0406250677069696
0.0421159398888569
0.0436201341664656
0.045139929577253
0.0466394520735425
0.0477276391543511
0.0479903446387309
0.0479282663896821
0.0481105520268706
0.0485436446306309
0.0493734923080508
0.05054180362483
0.0517057534895977
0.052973783070355
0.0543394319624385
0.0556462982814405
0.0568904953059899
0.0581620916283264
0.0595859499942607
0.0611701945787988
0.062850802392544
0.0645160341564323
0.0663305892414149
0.0681817445802193
0.0700638178494936
0.0719113817870925
0.0735492373769113
0.0751518306336508
0.0767168031802331
0.0782599229320977
0.0798746566915364
0.0814595438854089
0.0827721768798058
0.0839085353891965
0.0852113900594331
0.0865712375146605
0.088004452759321
0.0892667773133236
0.0905834269578105
0.0919114550096181
0.093123021395329
0.0945429169130788
0.0959878197234042
0.0971645386950886
0.0983164234542808
0.0995686168508142
0.100616872407971
0.101544069661455
0.102572208805026
0.103652886029767
0.104839339301297
0.105927076834972
0.107017111961061
0.108224150169704
0.109702207579057
0.111554639632738
0.113575924168676
0.115994582213105
0.118690107065127
0.121387365461504
0.124363419626056
0.127586070741855
0.130716944332492
0.133630341892865
0.136959906477026
0.140556896596302
0.144242506096493
0.148058744744044
0.152015356942002
0.155997061587625
0.160088698945849
0.164297080488418
0.1685911680455
0.172884118860383
0.176892813309324
0.180433403851025
0.183660166899004
0.186384257587756
0.188466923710272
0.189914083394274
0.191246942530833
0.192629258501437
0.194021941482365
0.19534566073532
0.196629853815595
0.197852947812912
0.199405517469644
0.201167444793012
0.20261088731771
0.203732369791104
0.20457609380681
0.204774321903289
0.204553314397215
0.204086536916904
0.203581543492258
0.202835444911235
0.201646759543788
0.200385361683628
0.199309612320254
0.198045303842498
0.196258523032285
0.194149587379226
0.192204166349848
0.189980961860283
0.18723839613401
0.184287776438821
0.181268494032096
0.178129547797997
0.174541330039524
0.170607171557943
0.166923912961887
0.163417543066838
0.159837668946377
0.156137863165684
0.152421773533944
0.148797922195941
0.145333441637295
0.142191627310751
0.139320581121958
0.136333390999357
0.133367468583254
0.131013102816644
0.129006863279154
0.127102561439765
0.125429988332723
0.123888215701069
0.122556189173959
0.121563933654667
0.120444307917129
0.118925287867256
0.117652944817586
0.116496803730527
0.115233079069702
0.114303811842952
0.113970767776093
0.11395188427584
0.113855945100241
0.113856386233629
0.113922032787586
0.114004343393383
0.113906073889216
0.112833346502586
0.110930447175069
0.1089611814456
0.106986372957128
0.104326283425231
0.101517099657606
0.099110280818966
0.0966031921094599
0.0940845787343469
0.0920001079552924
0.0904103019234746
0.0888137685986566
0.0871769609536831
0.0858676745225104
0.0849504855921919
0.0838202569664159
0.0826588648583949
0.0821005298814746
0.0813989648538871
0.0802336955291815
0.079055957162977
0.0775952251161449
0.0759017563639483
0.0742601610106765
0.0727188031177723
0.0711877383784558
0.0696457582873052
0.0683364344960549
0.0670558251874703
0.0657327081762413
0.0647155373123292
0.0638397996053324
0.0628076612848571
0.0617159859320574
0.0610858238730604
0.0611245487631019
0.0607960543661999
0.0606738234745988
0.0608884907802999
0.0606454555123441
0.0609347879554442
0.0617757514572022
0.0618222161272887
0.0617740926030964
0.0619810966818575
0.0616435072468746
0.0608459656965999
0.0606507955413395
0.0607195120791325
0.0604355425781836
0.0601100051980728
0.0603478505251798
0.0607478464891379
0.061702744816294
0.0637166733399146
0.0668024030627965
0.0709241980825595
0.076022302308749
0.0806830535766692
0.0844066212265747
0.0864168679889114
0.0862569961524675
0.0852121551398504
0.0840966247283473
0.0832820884533327
0.0825429810400832
0.0828564246780273
0.0845062216008955
0.0861483891558535
0.0874287086729258
0.0891982023106267
0.0901414557695172
0.0891842834248299
0.0876722756723254
0.0864973654350688
0.0850930261462609
0.0834872773816885
0.0821969913030993
0.0819952102869303
0.0821481922629305
0.0818866939316456
0.0812391370310424
0.0804298401621935
0.0803812317500351
0.0803913969312635
0.0799451351140295
0.0794429781419451
0.0790847660269159
0.0782924548540262
0.0773620427686623
0.0776682813350911
0.0777555861486406
0.0760216589321658
0.0745330739412544
0.0740100066193935
0.0732690746037853
0.0734394513292289
0.0740783421983344
0.0736715572197499
0.0730423751127625
0.073988750795296
0.0747789899010627
0.0741851838987188
0.0733180628069393
0.0721226113388099
0.0726483409497452
0.0742482474862599
0.0739796636742493
0.0727943657988712
0.0731075446516224
0.0748313624720648
0.0764540473781392
0.0774105027436147
0.0800672160308505
0.0841096083477899
0.0864106484160855
0.0863731332282932
0.0857363419896264
0.0859607654810167
0.0849010632484694
0.0829609338523765
0.0831110962768635
0.0832983740127991
0.0812300966250988
0.0799663234637187
0.0806525908827011
0.0815165738136635
0.080772890050011
0.0802819303527345
0.0801751667906485
0.0759802044117844
0.075097241817902
0.0775909174427094
0.0804736215191096
0.0808255991597067
0.0801950522690399
0.0834071365032242
0.0858795362445433
0.0859459708053434
0.0844684189172011
