1798
3999.43349933624
650.420452594757
1
2
4
0.0486836326235174
0.0484136306468969
0.0480491799217244
0.0479166681822456
0.047815447939498
0.0480059896931256
0.0480987491302629
0.047943366295858
0.0482299986016181
0.0487239247385453
0.0484998665729655
0.0479122289316
0.048163463439514
0.0482949962802506
0.0480325181359303
0.0481348732541606
0.0477302987731041
0.0475277646428795
0.0480003248532249
0.0482830858993394
0.0482496522455308
0.0480329801437059
0.0478273479508775
0.0479968707638579
0.0479579994933144
0.0476894587479147
0.0479154522374604
0.0479420817336945
0.0477689560058322
0.047517078817976
0.047319499243657
0.0476317644864826
0.047580185369359
0.047350993471497
0.0474252762546228
0.0474872089380145
0.0474551341757217
0.0475024328482044
0.0472779410866343
0.0470716499500127
0.0472382386109555
0.0477295035546684
0.0479111868168891
0.0475177076734535
0.0471843164892515
0.0471216861867424
0.0471325329544125
0.0470834235608224
0.0470317726486696
0.0474549762833173
0.0478206009135638
0.0480144454682922
0.0478194228068361
0.0469928350690523
0.0470815040968575
0.0476846803246014
0.0474779273174485
0.0469915206353494
0.0469501466210554
0.0474726471919784
0.0473640280736361
0.046717375479701
0.0468516427005398
0.0468686988981853
0.0468877108218789
0.0474883159948373
0.047040609927975
0.046355612935152
0.0471508985966769
0.0475181931240263
0.0467638833998347
0.0464606651674799
0.0464157581084732
0.0465906993052142
0.0466129000020902
0.0465730645657261
0.0463197311822747
0.0466051895815613
0.0471659254626324
0.0463798988644716
0.0454784312887637
0.0458971160952136
0.0461578873423222
0.0458956280868975
0.0462539493895002
0.0466081435892882
0.0464372454984286
0.0462822540047418
0.0461722985623607
0.0462745914788144
0.0462351800377837
0.0459255367900672
0.044949335850502
0.0448204456327466
0.0461045803162531
0.0465248036329437
0.0462090098354465
0.0462788223755292
0.0459683300854247
0.0459536570765664
0.0462660428031705
0.0464123364463106
0.0465078887468239
0.0460419174712657
0.0460541499481052
0.0465101538598641
0.0458006763041079
0.0450777482070317
0.044899239855061
0.044714374338837
0.0449811059240328
0.0452193071319802
0.0450410180503912
0.0454665255536016
0.045928655418074
0.0460195362848854
0.0460057765106855
0.045580948402232
0.0450417884015624
0.045056990947591
0.0451012078187995
0.0451024615360642
0.0458575955343106
0.0464612635551279
0.0461151035088201
0.0451582204745719
0.0444764548251831
0.0450755881624586
0.0460184452541334
0.0457916251758027
0.0448688535674916
0.0446430784986648
0.0446181574632714
0.0443321532260175
0.0444762945117605
0.0450955781431891
0.0453419231284394
0.0446829851497606
0.0438467044445232
0.0437617997507663
0.0443889936164771
0.0443774753600212
0.0439135050386014
0.0435311149192893
0.0429964655614389
0.0432795848619519
0.0437199178045576
0.0435032761575993
0.0434107111177792
0.0438635308312233
0.043776338966226
0.0440381912570603
0.0452015489845386
0.0452993025485451
0.04428355402355
0.0440833414939866
0.0443976359122019
0.0449140136121724
0.0448566310307545
0.044658738444474
0.0446523950785907
0.0445147681222488
0.0449616328137827
0.0453032338517447
0.0456227772056107
0.0459116797980356
0.0454196448129288
0.0451250969822581
0.0450280297904797
0.0444372522808285
0.0442389321024146
0.0447651577870199
0.0448845974602313
0.0447571696004982
0.0445542036946125
0.0447404127517804
0.0445256811087723
0.0441938051654479
0.0438707410457671
0.0441466666219868
0.0449314065768668
0.0452410070649383
0.044874519972788
0.0449208834783468
0.0451634248405953
0.0461174678131297
0.0473480612627223
0.0469133009723723
0.0451136421991352
0.0446645336057666
0.045384321536953
0.0458635817648123
0.0459570175279496
0.0462091734427705
0.046599384210283
0.0468679030842001
0.0463584571540482
0.0471142488797465
0.0478646747615651
0.0477862242753858
0.0473217219980314
0.0470605632265622
0.047794710082424
0.0480183230120143
0.0477399099511598
0.0479510207414167
0.0474006524204296
0.0468658273180642
0.0472105818666061
0.0477224824011923
0.0479592568444343
0.0474884338867049
0.047143018593877
0.0474237532628762
0.046304511879347
0.0464936336706824
0.0471866662070532
0.0465229546862298
0.0464205331834635
0.047464135303447
0.0475121172559514
0.0466729858359509
0.0465258499500733
0.0464686555779451
0.0465841746490471
0.0468283185186554
0.0467743754328232
0.0470503413605586
0.0470877632608021
0.0464176340670885
0.0471045295511349
0.0484675956010364
0.0475379412628139
0.0465074398499104
0.0460693842411729
0.0459307033927433
0.0469618361864539
0.0479206456535956
0.0480361954564982
0.0479524482573801
0.0473901469249679
0.0465827203317942
0.0466372404717123
0.0467051787726057
0.0465209603589871
0.0474552788030634
0.0472712974750669
0.0466281351633341
0.0478350610419214
0.0490307010107201
0.0481751710727866
0.0478096055331544
0.0477790007696033
0.0477320077835344
0.0476628070866848
0.0489693985305031
0.0496132839486011
0.0488087571283656
0.0481149379180708
0.048466325455679
0.0496530450224619
0.0506565787472808
0.0494200336632593
0.0484466320552614
0.049224622803548
0.0494610044252989
0.0480638651053857
0.0472489063637351
0.0477284131636627
0.0485885158070487
0.0489193624394917
0.0489408380795702
0.0503811785427238
0.0512981781308898
0.0507961651989409
0.0505643739593107
0.0506950788221447
0.0514291981341214
0.0519201074416343
0.0508948068894239
0.0501903777139465
0.0510668405749572
0.0511131889589799
0.0508821444688891
0.0508971490990361
0.0506612424755432
0.0513930209840478
0.0526026886531815
0.0531067349091823
0.0526485776404121
0.0517440739163982
0.0518674781790238
0.0524607916217157
0.052814884185709
0.0525151121658124
0.0526504320644865
0.052446898291375
0.0526528140574091
0.0537200446457797
0.0533232240826514
0.052925696878107
0.0528510975088915
0.053876024236356
0.0547268687193589
0.0543000775723721
0.053891698770807
0.0536084317041552
0.0533666166397321
0.0538804601903696
0.053654636157032
0.0537099956162921
0.0547956066638508
0.0546872051201007
0.0542289577732525
0.0543564999940566
0.054249180064224
0.0547218131941416
0.0549070284033948
0.0552176142456935
0.0554286830789938
0.0557420243382486
0.0566048436641919
0.0563822425036145
0.0555308500829599
0.0553940424149723
0.0560404812656184
0.0560094863834015
0.0558424758221845
0.0560566062725403
0.0564334752167311
0.0563346580575939
0.0561500497939334
0.0561241376084766
0.0564078091248025
0.0569703565291743
0.0570825985667242
0.0569160833052175
0.0573713478449799
0.0580315024956188
0.0572744839241008
0.0577758110882665
0.0586663741723956
0.057861620624906
0.0570369658858941
0.0578290527239805
0.0588648974405536
0.0584019455733584
0.0576429128457749
0.0579775977172515
0.058867347827542
0.0587856495080505
0.0589169736041473
0.0589021305037166
0.0584258220048865
0.0580732607069381
0.0584033974687192
0.0586522519077144
0.0586469956446708
0.0591667934339987
0.0590931161783768
0.0584193438077006
0.0585760821433062
0.0590881080365815
0.0599993775069858
0.0600771666248649
0.0593833931825087
0.0591312438980232
0.0594337813970328
0.0595182250832292
0.0598087027390159
0.0600167887067295
0.0598412588448143
0.0597504516836826
0.059783330191252
0.0598449079295856
0.0603153629087548
0.0609249264651666
0.0606168815372665
0.0606233075274176
0.0611295918404311
0.0611499050563489
0.0609281696962193
0.0606216831415109
0.0612845909025405
0.0611467138760651
0.0611781807163484
0.0620274216446796
0.0623360945179885
0.0623606612940457
0.0618757175166798
0.0619046601287574
0.0621905725474464
0.0620389268238222
0.0621350822218872
0.0628769071002281
0.0628286303850225
0.062648132888493
0.0624916323835299
0.0628785181395452
0.063253459412809
0.0633954898545699
0.0632344035404258
0.0633802213675886
0.0637450342533473
0.0638353438224103
0.0636687264443587
0.0638522415720556
0.0643877677154495
0.0646928034037388
0.064268264099078
0.0641367066443772
0.0646508148813791
0.0649611528065899
0.065369669793405
0.0657560409258364
0.065862155108477
0.0657205038912619
0.0659643997364386
0.0659101062203921
0.0660412639239417
0.0661578152207553
0.0664696083996717
0.0667183153513791
0.0668772300012162
0.0668672787013775
0.066466063823061
0.0663358603743797
0.0669092346001386
0.0672482288681828
0.0674897734746129
0.0677162833782253
0.0674784837497776
0.0677408794119933
0.0676841200920494
0.0676422920019961
0.0683741742121154
0.0688476589258833
0.0686486813961381
0.0686008719715847
0.0686831047594051
0.0688477913362041
0.0691541342187803
0.0691419144532681
0.0692869548523411
0.0697453249601223
0.0702658239001814
0.0702595718966566
0.0697095118164811
0.0696139785456053
0.0700382137975419
0.0705042061464948
0.0707846893501018
0.0707432281974333
0.070709391142523
0.0710551783293667
0.0712744151039305
0.0706525819095317
0.0703052602687102
0.0704871105939985
0.0715595232342369
0.0719051295271868
0.071790970125649
0.0716747597462761
0.0716476245582946
0.0719485838540991
0.0718981155242791
0.0717358559777485
0.0719901596701386
0.0719602151946285
0.0718689810731013
0.0716707923750871
0.0715724902906015
0.0717295236525004
0.0720891756533491
0.0726510792155228
0.0727099347731491
0.0721779934066474
0.0719386806152404
0.0725472798145374
0.0727552859387739
0.0723096871962245
0.0717995266848562
0.0713479723946344
0.0717317176207606
0.0723442490385478
0.0721841059533604
0.0717003774188903
0.0714954100251591
0.0714288958099778
0.0714379203583607
0.071666513144101
0.0719805695012556
0.0719781640109493
0.0716920400881049
0.0716929207808944
0.0720504839319636
0.0721316079221757
0.0720773204448754
0.0717949446023801
0.0713899975925567
0.0713167570045781
0.0715243403915013
0.0715898877261648
0.0713288524743849
0.0711654510091965
0.0714773674237411
0.0713184342511867
0.0710329455710877
0.0709715369750902
0.0708520092160007
0.0707257054991844
0.0708011155385367
0.0707630640183044
0.0706091978869602
0.0706486280403455
0.0705120016499915
0.0704270292698859
0.0706009563193526
0.0707788793085121
0.0707476485650266
0.070333754883216
0.069961945942147
0.0700363118930192
0.0701878424776294
0.0702256365137875
0.0700427274696357
0.0698349278480963
0.0700802606626316
0.0699225397024656
0.0698753359845653
0.0701321871678783
0.0699393440427235
0.0698908468549932
0.0697219843659866
0.069109734321857
0.0688739994048702
0.068930984674151
0.0692576070078129
0.0695254961626966
0.0691587990133962
0.0687837842995788
0.0691721482023333
0.0695965757819338
0.0693314311095724
0.0689192797747244
0.0687402156292105
0.0687079549249408
0.0685345557025447
0.0687050783392104
0.0692370166558576
0.0691725632409324
0.0690776857736073
0.069401251683739
0.0696036904967309
0.0698668923096728
0.0702521573723439
0.0702722393772355
0.0700695456104301
0.0702249261762748
0.0709584859513685
0.0712240410275378
0.0710761577207311
0.0711210555705485
0.0711345692544932
0.0710314449463971
0.071074222883184
0.0716227219254013
0.07273918181807
0.0737110693983146
0.0743660483079722
0.0754494246051139
0.0771549977977877
0.0790802061613557
0.0814471335239438
0.0840964879951123
0.0869635037199901
0.0906322862284884
0.0949049138739192
0.0995112053456737
0.104309284600107
0.10926665365065
0.113682771810314
0.115690852335356
0.115165507135918
0.113168794793361
0.110485180643115
0.107528287292863
0.104645920220269
0.102074789835564
0.0994559989030393
0.0970831420813078
0.0953775714245131
0.0940642239220905
0.0927672296534608
0.0916403311042638
0.090620799078453
0.0894896941649715
0.088212430409691
0.0868246962224732
0.0856632667604441
0.0844984747421667
0.0833272162992675
0.0822307292784808
0.0813956159890058
0.0804747869036259
0.0793003685797343
0.0783780249284757
0.0777278590298419
0.0775093605422334
0.0773563178822647
0.0773425433682956
0.0780075178691183
0.0792233246486454
0.0816277213172716
0.0856952335806045
0.09181216613311
0.0991048606450676
0.105023624908837
0.107927857738027
0.108023889514473
0.105981284192453
0.102290510936678
0.0983101805738343
0.09485725451883
0.091766182214444
0.0887747149466195
0.0857306079838728
0.0834572831709496
0.0822797349927549
0.0811303454753294
0.0797608733636061
0.0787004367860767
0.0778811508758345
0.0772902688765076
0.0766618882811597
0.0757997997247764
0.0753032143092723
0.0750076414442324
0.0747396761029156
0.0745555701336796
0.0742278451136944
0.0737007290551071
0.0731091609600799
0.0727888653859371
0.0726721149944309
0.0724181276238592
0.072192194753369
0.0720977831264556
0.0717896400243512
0.0714311750690359
0.0712373912531684
0.0710404589040346
0.0709471513083433
0.0708601783340406
0.0705105822238828
0.0700731211858462
0.0699151956331036
0.069961958089519
0.0698951541493429
0.0695388387543117
0.069095642291468
0.0689955006031589
0.0691974724312429
0.0690983473152658
0.068866051955677
0.068864979574081
0.0688717704066113
0.0685948426955831
0.0682587024584608
0.0681292890327966
0.068111610970429
0.0681706734654148
0.0681767673211562
0.0681154599836252
0.0680189124273061
0.0679074306458234
0.0677453466522951
0.0675660722826649
0.0675438234585404
0.0674623072170684
0.0671357439677247
0.0670333952391774
0.067266589354381
0.067355200793648
0.0672284160291671
0.0668715359735105
0.0666932479660046
0.0666821277974603
0.0666979959717866
0.066723188581997
0.0668147939026437
0.0668887160752927
0.0667104413804785
0.0663967637400476
0.0660628452557337
0.0659482056368359
0.0662638998370385
0.0663114381538881
0.0659561623321396
0.0657460269185377
0.0658772273775449
0.0660503174608246
0.0659136686046626
0.0657188837300326
0.0657300927369076
0.0657205732399432
0.0656209140471754
0.0656383549639103
0.0655888744732711
0.0653148804058659
0.0651331794961488
0.0653226439879603
0.0655948764953716
0.0655808780751447
0.0653375975042152
0.0652967480400688
0.0653662211890378
0.065455401986114
0.0655323045758299
0.0653822168276769
0.0652756066118715
0.065409723468373
0.0655517193687329
0.0652972135406359
0.0649173210769997
0.0651065544336116
0.0652679271445711
0.065206350494764
0.0649968933380452
0.064813965677002
0.065037147916984
0.0649742633733866
0.0646423200619698
0.0644328177376948
0.0644022086214611
0.0644071168750094
0.0642143599451244
0.063924601016622
0.0638347417554968
0.0636690219041604
0.063348723751984
0.0633251862248782
0.0633186259307171
0.062997605602689
0.0630148874213719
0.0630613998547135
0.0628861013312256
0.0627911013360655
0.0624012040007659
0.0617160739726346
0.0616392306261957
0.0620515650246284
0.0625362135682532
0.0625855810787749
0.0620991778389828
0.0615149813426134
0.0615618839297856
0.0616539097390244
0.0613356203708119
0.060919223757651
0.0606827861062006
0.0606027450209587
0.0608845214717065
0.0610048840294908
0.0608856003036569
0.060731059895177
0.0606620067288307
0.0608555592617635
0.0606245537430239
0.0597360453403725
0.0598487745309372
0.060131149858519
0.0599973652883682
0.0601184937730286
0.0603571295747144
0.0602328380662347
0.0595935034321609
0.0593964058446339
0.0594899498139414
0.0592448924398278
0.0593922394652166
0.0596126360264879
0.0595052994681659
0.0593337103661181
0.059254911236192
0.0588024152842016
0.0584491254186941
0.0584678194561783
0.0587949950577162
0.0591591341961985
0.0592714302687099
0.0586620076673749
0.0586577388815457
0.0588960855254261
0.0588930799757868
0.0586974052132713
0.0584668371924906
0.0586344219261804
0.058493580496875
0.0579911476688032
0.0582848544643857
0.0585704020822137
0.0582222978041443
0.0582877605517725
0.0588581446699852
0.0586794952544937
0.0584980648679135
0.0583867916759423
0.0580607733569671
0.0582148120959197
0.0584208506645273
0.0577807122842461
0.0575541397818087
0.0581038504834428
0.0582517144544476
0.0581694319399995
0.0583179186406215
0.0581575286589923
0.0575314645561314
0.0573906949765253
0.0576240736517043
0.0581732127404068
0.0581427100537027
0.0576633964852979
0.057474577608074
0.057526822244421
0.0577139685342727
0.0576297985047854
0.0575645494183548
0.0575772546543939
0.0574781707487721
0.057719787265035
0.0580534662992723
0.0575397281085378
0.0571821704499563
0.0573327447068688
0.0571768183547962
0.0572232853493049
0.0578951576866214
0.057793291369371
0.0573061106227417
0.0572135987843034
0.057593543810358
0.0580428606714595
0.0580531798850515
0.0573419792334869
0.0566856387912706
0.0564593353345757
0.0565983942199914
0.0568153479239098
0.0569542424166598
0.0574656091918271
0.0575618983042433
0.0568453434458012
0.0565286457210837
0.0566745129609608
0.0565438482841109
0.056318881357882
0.0562468846720063
0.0565051397782109
0.0572361383183518
0.0574431956658351
0.0573106724517403
0.0572737543698558
0.0573183063802124
0.0572809200591511
0.0572693209275003
0.0573833321543396
0.057205774602732
0.057189285166174
0.0574224884467789
0.0577165753186358
0.0574707226436968
0.0570276266228297
0.0573514296481543
0.0571107397780461
0.0563537006341496
0.0564368549817654
0.0570157709695192
0.0570531082776798
0.056448289299374
0.056324754163503
0.0563351747918756
0.0561070949492408
0.0561400357871818
0.0565387022784377
0.057208772819112
0.0576488387888816
0.057452524328083
0.0572439151686066
0.0575543039268876
0.0578431642543873
0.0579279638400759
0.0575680199792944
0.0571137938674095
0.0569299058478171
0.057022005860039
0.0575854945210574
0.0578904375593714
0.0583836336920916
0.0588795223237359
0.0584351464116926
0.0576975781683613
0.0570955272666203
0.0567517140099768
0.0569401721240442
0.0570271575757801
0.0565546446613653
0.0563471553124002
0.0564160696454126
0.0567676256225226
0.0565810316595841
0.056092026214642
0.0562255829058342
0.0560944862523279
0.0558542006607821
0.0562305891989629
0.0564295572632388
0.0564101409336426
0.0560788105924454
0.0552500178422795
0.0546000048425955
0.0545948292701174
0.0542714193821004
0.0540671263581247
0.0541322004729746
0.053862432352498
0.0536967359874114
0.0536794256559011
0.0535616487228595
0.0529631624697395
0.0525174672643853
0.0519696866162123
0.0511326891001047
0.0512715496045855
0.051683201248301
0.0514808151509907
0.0509515578403741
0.050962932386901
0.0505109429100764
0.0493031902579651
0.0491335485135955
0.049330643348672
0.0491880152528159
0.0498716759629024
0.049905401050522
0.0494824519620863
0.0483923601236614
0.0480995572874213
0.0484573785618891
0.0474820109975528
0.0461614739672336
0.04785596050066
0.0484608061154498
0.047179600936408
0.0453369052192157
0.0442238428446242
0.0453648605835001
0.0474201712180907
0.0485524395384115
0.0474100240789382
0.0449911021564127
0.044915635183441
0.0461876652808264
0.0457469603760782
0.0446686756084151
0.044673458568949
0.0435831611176838
0.0433711165983435
0.0435041463405346
0.0437302590053335
0.0437065384847008
0.0436559949122312
0.043194859485005
0.0433784981789759
0.0428954335591748
0.0414005252156385
0.0398574551724991
0.0408012669837101
0.0426889834839657
0.0429756266260147
0.0412017103446269
0.0406981914338418
0.0404086472446819
0.0404192087952071
0.0397168404317524
0.039689031460707
0.0363824067672001
0.0323177961079698
0.0329699577977821
0.0360551446121076
0.039607452545618
0.0407478229509499
0.039255675720001
0.0397689212218298
0.0408508251857418
0.0414014253522992
0.0423954810795472
0.0428881628819263
0.0430702412966302
0.0439854752363455
0.0438288537437801
0.0436299185678327
0.0447554879426564
0.0460075888145287
0.0462218150428749
0.0463960985813032
0.0479769488161447
0.0485914548885612
0.0474704811483566
0.0482661249678665
0.0491143243332696
0.0486655664045664
0.0492108014992077
0.0494418343758564
0.0496999912654559
0.0501363901754938
0.048924104855674
0.0479800999512707
0.0482379794641432
0.0487331854204305
0.0478971021807122
0.0476306929880188
0.048066716075702
0.0480144501941343
0.0473612818229688
0.0480697263679717
0.0497928401937534
0.0499837500735835
0.0490007869143272
0.047979323978476
0.0479331750684942
0.0486440137625725
0.0485704834431912
0.0480019661949818
0.0475046228321883
0.0479713774018057
0.0478182794035777
0.0464709698323015
0.0460370953556369
0.0459458250705632
0.0459225435943565
0.0456132233832591
0.0455707940185729
0.0454156884805847
0.0453906692275813
0.0446666506259154
0.042666211931481
0.0425644870740093
0.0423821940612731
0.0413909052756412
0.0408674005142738
0.0403222698882454
0.040842983878827
0.0406719264690644
0.0405936904891865
0.0406549682696806
0.0383963952634186
0.0367570228767927
0.0361183670810421
0.0387545797529929
0.0395361765717164
0.0379583719197347
0.0367713166420864
0.0381641114201396
0.0392571717126958
0.0386554083840327
0.0377426045793017
0.0400904514385331
0.0417040897766148
0.0410814785830383
0.0401187930358924
0.0390999124143444
0.0409249342586958
0.0425125070851337
0.041202572539094
0.0399206420914092
0.0400573771630034
0.0409064226816841
0.0415223989677944
0.0446668639434023
0.0459199077966612
0.0426315820002208
0.0397061386848682
0.0388580065581021
0.0381688471377762
0.039399158333011
0.0395299159966883
0.0392586257317349
0.0397889772129289
0.0404193599144905
0.0395678373450612
0.0394277847865834
0.0415004666355442
0.0422184060747867
0.0421840629243352
0.0426747806151841
0.0431275085382886
0.0434894110197821
0.0437064376845487
0.0447737355303557
0.0449697128521363
0.0450861498666464
0.0446698199502783
0.0452156891509623
0.0458686459084114
0.045911182460247
0.0467353473206065
0.0473755403842747
0.0473784634087354
0.0472007180239535
0.0469332825096601
0.0470419097374811
0.0471950981503096
0.0473382473117757
0.0481196593912752
0.0492050258106024
0.0497277388904407
0.0494522063250442
0.0491422987206625
0.0494642962367941
0.0494266012836417
0.0497534350130276
0.0492264827934133
0.0488216183816796
0.0493607952432053
0.0495396752487962
0.049602890487626
0.0501204185019915
0.0502252236344203
0.0503785856999821
0.0506048458137894
0.0503721054496599
0.0500713452448326
0.0499571049066108
0.0498612876410839
0.0500175464530908
0.0500741392339189
0.0502167280972252
0.0503880937642566
0.0504481765363497
0.0505992188205427
0.0509067421970824
0.0513134989648307
0.0511803593151063
0.0504826535730648
0.0502098782822058
0.0504264154520168
0.0510291147640919
0.0516755908716864
0.0519594306466035
0.0515605572653235
0.0512092452331674
0.0508752422699784
0.0506243192972201
0.0511013077539197
0.0515967356943021
0.0510166137050461
0.0508191343260236
0.0512117709319225
0.0513652949945825
0.0513800277006866
0.0515681986601861
0.0519909289337662
0.0518229650817665
0.0514257776128269
0.0516119323237678
0.0515851188943631
0.051528936053042
0.0517903315309494
0.0517700680196974
0.0513655309502318
0.0514978798339526
0.0519733947710937
0.052324946614222
0.0523019279124113
0.0519819008624292
0.0520107972389123
0.0525926319775483
0.0529879589232389
0.0527299349715479
0.0525100778731356
0.0527552946513423
0.0535843246394325
0.0539838336813784
0.0530721935736361
0.0526471774807678
0.0530728377281547
0.0533021155436232
0.0532080658738165
0.0531125652252279
0.0530863876337468
0.0530041427558683
0.0533782795322886
0.0541154891134068
0.0538367163681772
0.053180240754019
0.0530582068728846
0.0526322101019074
0.0527681984391885
0.0535757404025185
0.0534953650403186
0.0533243069663909
0.0533685360022673
0.0529092390287398
0.0533209705479425
0.0541731352066184
0.0537862675277298
0.0530258704596958
0.0528224521493895
0.0530438349905453
0.0532680023840346
0.0534128516387633
0.0530245284865777
0.0534347930581879
0.0545366887494686
0.0535068818105131
0.0520970711882313
0.051867126223744
0.0522157832448915
0.0529144384991822
0.0528840988754277
0.0529341535732136
0.0543477611513523
0.0554215233921396
0.0539691339851374
0.0527978673976323
0.0526641216828272
0.0527397078764689
0.0532917748620951
0.0542522353155702
0.0541098782953933
0.0541486869460036
0.0553665910273176
0.0546813470858684
0.0538837948093043
0.0539962717033772
0.0530513486677724
0.0534617904924136
0.0542737185518933
0.0548079034824042
0.0564945894499717
0.0574828986795386
0.0552894760533418
0.0546058182301508
0.0554880087768592
0.0567757428191706
0.0576687721111286
0.057237502564065
0.05785017646934
0.0583780383999194
0.0576388229593772
0.0579107824463906
0.05913303762015
0.0595813701525458
0.0592650458738817
0.0594038389155775
0.0607123350006697
0.0635167667592817
0.0635777074359952
0.0600842490137934
0.0605680537705503
0.0620051772702765
0.0612231472817416
0.0607034430378229
0.0612887436605955
0.0619781759776378
0.063161482935673
0.0639526754887304
0.061772287747147
0.0605594496064385
0.0616168934663593
0.0622175518717248
0.0621509177452357
0.0626370665926668
0.0624353779159411
0.0611550242144142
0.0613324012036902
0.0621431331083083
0.0611867503465408
0.0601203993710946
0.0603120710578701
0.0604993188968151
0.0605847609609784
0.0605520213959108
0.0601350995046291
0.0596972402339052
0.059692061188147
0.059848691838285
0.0598609054177853
0.0599030471449692
0.0600342881475401
0.0599146253062245
0.05971539372315
0.0593850116792904
0.0592655321546639
0.0595596467439084
0.0594590668407885
0.0592447296419812
0.0601085487858743
0.0607594266727435
0.0588465211304549
0.0583328294255503
0.0596120414735873
0.0596428246197751
0.0587805626952097
0.0588744622631883
0.0591410737518872
0.0606900142531493
0.062821569368912
0.0599294065408304
0.057844439830353
0.0582057299595587
0.0586466501770071
0.0594831492701631
0.0594132703151304
0.0597645012374931
0.0608051670943673
0.0614275165913464
0.0621979089159683
0.0605570843454871
0.0585870313504438
0.0593843369178715
0.0606616742573939
0.0599445670204149
0.0598869931092869
0.0607651995475976
0.0613324621250034
0.0614618795962239
0.0620667264898764
0.0612640555116059
0.0604869402960991
0.0609975500655177
0.0607057342149168
0.0609620819850418
0.0616190550538416
0.0627957169326205
0.0641532150786729
0.0617121370313312
0.0596115584399244
0.0601918677575722
0.0614067574012982
0.0623568408720323
0.0619596675011254
0.0609566739740304
0.0615362467791265
0.0626926937220956
0.0621813494079235
0.0611084804082207
0.0607243006246922
0.0608619380656537
0.0610569764592807
0.0611253421380387
0.0616494636063077
0.0630740145309422
0.0666730123926097
0.0712816192883916
0.0738996103292111
0.0763639661010895
0.0784627651053868
0.0782373003051206
0.0756756668231451
0.0745831263478656
0.075238467772316
0.074448697789836
0.0696730988315181
0.0676131453210594
0.0675009356332287
0.0674271062897906
0.0670278030949996
0.0658177425929784
0.0651814307327272
0.0649823926488473
0.06500629485619
0.065812853509239
0.065733644315692
0.0634065795066358
0.0627952520242039
0.0631054848727448
0.0626891480806629
0.0619693279372691
0.0619176822978981
0.0616275900639281
0.0615194801922614
0.0623740860804727
0.0611904409222199
0.0597832368156168
0.0597449352110165
0.0599663705566897
0.0600392350592147
0.0598953488983603
0.0600512536541151
0.0599916609299274
0.0594596446589621
0.0595598550582067
0.0598996758931931
0.0594641248838075
0.0595197560795258
0.059042242472552
0.0585716824455418
0.0591484667098195
0.0598041362113517
0.0593237368464967
0.0588676941318535
0.0593083914093076
0.0598529605124628
0.0603975332098509
0.0607183462126042
0.0610757685217871
0.0608281742431225
0.0604873198394989
0.0607111645005341
0.0610667890990109
0.0613199765672259
0.0616902974175537
0.0613923303662598
0.0608086401579399
0.0609003023014738
0.0611676250143645
0.0612790990666494
0.061355097380965
0.0615351616471364
0.0616641980197136
0.0616013104444304
0.061543805409414
0.0615054007969471
0.061697730645318
0.0616838267524021
0.0612201783058301
0.0608750844287516
0.0607200670913044
0.0605179576431752
0.0604442752269125
0.0604718506969558
0.060374041451004
0.0603463390970619
0.060377438884862
0.0603593657857414
0.0604290505198952
0.0603443058354404
0.0600357413529565
0.0598565227940467
0.0597267534447896
0.0596428213653306
0.0596788216998945
0.0596291371440269
0.0594064611100388
0.0590334333073658
0.0587593414912154
0.0585249336214981
0.0582582679138012
0.0579849570057447
0.0577366313899013
0.0574608441356734
0.0571065957724311
0.0568173169461237
0.05667085398039
0.0565109964492811
0.0561511145376728
0.0558199422137996
0.0557185375931777
0.0554326115429154
0.0551800679301634
0.0549316231313125
0.0546747243133711
0.0544053699533648
0.0542095242973738
0.053947169821893
0.0537750103638666
0.053612711311608
0.0533698896634748
0.0531627932617543
0.0530280340140383
0.0528519083084914
0.0527041125313979
0.0525611625506764
0.0524798315753787
0.0524719469096139
0.0522851184090549
0.0521126012040725
0.052007008200054
0.0518422902955047
0.0517223492651007
0.0516662744448718
0.0515136759728793
0.0512742571335049
0.0511330964899809
0.051106503276371
0.0510594783160665
0.0509170890921829
0.0507908760206338
0.050771231527345
0.0508824470279855
0.0509765399021782
0.0511527219977271
0.0514494328923266
0.0516841331244521
0.0519006332738647
0.0520475331169444
0.0521824011646189
0.0524744418113854
0.0528308983715507
0.0531221005004388
0.0534485970186125
0.0537616890811179
0.054077640855875
0.0543926753785044
0.0547601184524544
0.0553136380463028
0.055822551338507
0.0562258363288049
0.0566169252159363
0.0570118913731688
0.0575479150267707
0.0580216640561373
0.0585810657641869
0.0593795290151346
0.0601302510411394
0.0608915314349729
0.0617968725819972
0.0625587059782432
0.0631303217661372
0.0634665269945035
0.0634761979528381
0.0632147412348065
0.0631717629852426
0.0635405312047463
0.0641948647726309
0.0649696917172673
0.0657873819399104
0.0665104677823648
0.0672659934062355
0.0680622642803638
0.068770739218912
0.0694847745012322
0.0702110449994622
0.0709822936206514
0.0717578226442847
0.072559934132625
0.0734575748559267
0.0743320094557049
0.0752345140932892
0.0760923968623662
0.0768702859233536
0.0778093912668069
0.0788419500261736
0.0798263996847006
0.0806640810688812
0.081414461608239
0.0822621837311339
0.0830286167467753
0.0837084649760026
0.0844340323831606
0.0852774113591388
0.0859572733654487
0.0866417109387892
0.0873366572282179
0.0880462280419804
0.0887940539333668
0.08951364221546
0.0901875921917951
0.0907971659965798
0.0913379622686999
0.0918451746007555
0.0924294607583083
0.0930173866268094
0.0935820098875969
0.0942179288408784
0.0948474482140413
0.0954871214901389
0.0962987984911396
0.0974189538218637
0.0985474370271264
0.099934590380175
0.101376070025823
0.102973375209887
0.104695254262307
0.106374215083686
0.108016650983315
0.109713934996937
0.111632354241129
0.113561917708683
0.115505490046375
0.117562247473867
0.1196294787661
0.12174608024875
0.123920657420356
0.126210857733409
0.128529733397307
0.13083913545489
0.132879666522624
0.134778046802399
0.136678276525223
0.138712892261641
0.140518228670105
0.141893331496372
0.143052443639643
0.144092029415421
0.145068222123312
0.145922491478642
0.146547023744035
0.147018304729692
0.147403522190872
0.147894726097398
0.148576709036835
0.149091454364732
0.149356516983825
0.149671185529907
0.149686353873376
0.149703832082401
0.149678964263515
0.149235009040059
0.14878722614897
0.148555493384698
0.148113584311449
0.147452335781859
0.146741700611437
0.145963992337236
0.145228073166434
0.144308282415646
0.143127208124013
0.141783281101499
0.140508293531298
0.139190788377135
0.137506369495415
0.13568302366303
0.133989928193255
0.132243985147367
0.130260425351572
0.128552229597202
0.12715031042022
0.1255841291505
0.123992084542673
0.122714224207483
0.121491970742579
0.120364096024819
0.11938965572286
0.118392833732443
0.117350825992407
0.11677934439815
0.116443281806364
0.116167881561672
0.115896573256928
0.115841293019812
0.116219482919118
0.116519486781569
0.116464951759747
0.116730090322167
0.117370920214372
0.117851411435934
0.118276632297621
0.119081274300823
0.120187690297921
0.121498282866371
0.123024761303103
0.124717955494216
0.126395893587
0.12775474329851
0.128880970622854
0.129680781544789
0.130312409473878
0.130822571143567
0.131147991216955
0.13145760660383
0.13169100657309
0.132044555332633
0.132538938128871
0.132763012183116
0.132939515229846
0.133356393831651
0.133643122178217
0.133893372363173
0.133773303908822
0.133342125583969
0.133182357605504
0.133097382806451
0.132420077304126
0.131171432140931
0.130026525198942
0.128462687875566
0.126324057197115
0.12439481459989
0.122334446334148
0.119968935168282
0.11812226436543
0.115948892531379
0.113505526705452
0.111677282066085
0.110270349432996
0.109049852574547
0.10774097075384
0.106385695183607
0.104831705351021
0.103636932446498
0.103067452663468
0.102738576106444
0.101976693609229
0.101770249470284
0.10250469716936
0.103048007310899
0.10307584757667
0.10289946775271
0.102675437241306
0.103061616360847
0.104028974159371
0.104827647434492
0.105399053761879
0.106045553659378
0.107105490819618
0.108442410162071
0.109905899872153
0.111978778524289
0.114526527277841
0.1180966702626
0.122654572590033
0.127124811178732
0.13128744495104
0.135017898353568
0.138162599655938
0.139445312272073
0.139175107941891
0.138630507987737
0.137869267704812
0.137441516782624
0.137650047518054
0.137960584163099
0.137855487893879
0.138387774634707
0.138819331665706
0.137742599309388
0.135408786637883
0.132722621114525
0.129597776730237
0.12714261736493
0.126127347170214
0.12478935440818
0.122493506618912
0.11976062291588
0.118038013574742
0.117377905279051
0.116114756911767
0.113816962660445
0.111667620884639
0.110299071008863
0.109489168804558
0.108339746510268
0.1067098220485
0.105793589451066
0.105176185767285
0.103631595245422
0.102139869397668
0.101781446295491
0.100914276821236
0.100618594380048
0.101965897574437
0.10217221780497
0.102312281260612
0.103503797795243
0.104301828187778
0.106162045965927
0.109689060305695
0.110426318734809
0.109253133198939
0.107421271332555
0.104962975465172
0.103067387752261
0.101737601195421
0.101650412745265
0.103026577495106
0.10317830696352
0.103238086419162
0.105426162283028
0.107725995019243
0.109280181521376
0.110122067574482
0.109794590245697
0.109581314926839
0.10964080913995
0.108827761642671
0.108490582605563
0.109952881963696
0.111191872315364
0.111362565327642
0.110145117677284
0.10987519145125
0.112374647278255
0.113317418045011
0.112686373255362
0.1121597443419
0.112713143522215
0.114986995595711
0.116176830182336
0.114739501236513
0.112438408328238
0.114262480813477
0.116616288516037
0.116022524742159
0.117630285332065
