1798
3999.43349933624
650.420452594757
1
2
4
0.00639773164351434
0.00654769078482175
0.00693733168994133
0.00725819370734723
0.00710029112972873
0.00701062224515749
0.00670422241579613
0.00663746491500913
0.00690498035748901
0.00707530466547221
0.00675105814764526
0.00670544947309609
0.00611406609084643
0.00607345178751242
0.00633528898168797
0.00608669630891085
0.0061475542749243
0.00656792997531989
0.00660361795922649
0.00668925375374123
0.00676353097668505
0.0069420358777071
0.00751394669985602
0.00729823164973567
0.00674967819902872
0.00666636691576733
0.00671518743567702
0.00673220560518594
0.00659247693748609
0.00664765416615529
0.00663483471008398
0.00680788507104197
0.00723687654964706
0.00656582230349562
0.0058303425713186
0.00616769337942924
0.00659163023484685
0.00656556220070577
0.00640953169613918
0.00666890973429642
0.00742633738763363
0.00736575277305348
0.00674168136928744
0.00638366573409834
0.00627236932271288
0.00654482089483518
0.00670703521411016
0.00666342461133256
0.00617533169765865
0.0057094956058554
0.00621553614545616
0.00679004781181969
0.00647644251273841
0.00616397081186002
0.00635787028049242
0.00643091452612366
0.00590511819339429
0.0058810511181981
0.00645025603748633
0.00683596270967149
0.00669385614588869
0.00653676894141307
0.00683219698937551
0.00699525011359775
0.00600246319449517
0.00544748210862224
0.00617246154297056
0.00616899310391034
0.00554927837611635
0.00615732101127287
0.00659790946075944
0.00700376663348872
0.00720592138305219
0.00675029517482149
0.00633084995303896
0.00602183354929447
0.00570490949239519
0.00543227162635733
0.00568560536107951
0.00582153402839596
0.00569813848286591
0.00596522173858456
0.00615735730333103
0.00636338317131694
0.00650276428000455
0.00658744246813727
0.00650352862334159
0.00649768808322387
0.00708601051493465
0.00711949521089605
0.0067351398378498
0.00645050048275359
0.00615550865141538
0.00538064205436407
0.00493252192448874
0.00548863748435499
0.00622357925644163
0.00622582423730129
0.00652722462012236
0.0067909898543283
0.00627249508256082
0.00575693374248957
0.00592334489416508
0.00622305191678778
0.00590265116517724
0.00602007421917868
0.00590592058426118
0.00562424496989534
0.00587816608439053
0.00598416055513701
0.0061808472677034
0.00658797220595737
0.00657282573000832
0.00628185981154639
0.00662042947466082
0.00657659495957676
0.00614043908636404
0.00657996599717342
0.00667400396169794
0.00625011029297999
0.00583378159119533
0.00612708055362295
0.00621207480052912
0.00597081429458914
0.00583652487104512
0.00645009222164134
0.00681422555473425
0.00578813847151913
0.00575103350477571
0.00646154061419033
0.00600263096759935
0.00560993848398678
0.005915698150114
0.00590949476119378
0.0051737452358313
0.00518891080998036
0.00605389993626971
0.00595137077817664
0.00580627336295507
0.00584265548013444
0.00556208332044929
0.0053670937835072
0.00478082441065694
0.00430826859233171
0.00475823087845345
0.00566160107556156
0.00635616871853097
0.00583371352084055
0.00575728836203236
0.0060656822306917
0.00604621216822244
0.00621765775538594
0.00552187258076368
0.00529748706983836
0.00583004546937519
0.00605978913631518
0.00674344254763001
0.0069532093963598
0.00621766224237222
0.00655922392396691
0.00757581721210004
0.00728876599388059
0.00703800966081133
0.00707027119959949
0.00689575679451131
0.00736605032408788
0.00783790067214168
0.00738833470617732
0.00738497842394605
0.00754096691508363
0.00754145059912372
0.00667196202168524
0.00623262008619499
0.00691623379613043
0.00764959654050347
0.00786775677438174
0.00776184364221323
0.00820083593093752
0.00867494764216518
0.0089531628689635
0.00891329257457456
0.00891185571426993
0.00853630265132151
0.00917679035589896
0.00956513460311341
0.00933162366892651
0.00850798810242369
0.00890375644345548
0.0103983299780034
0.0110286630578886
0.011591764394799
0.0122687792815656
0.012209432472214
0.0117999014447649
0.0116598775628631
0.012102309864174
0.0124792413666101
0.0127147527076721
0.0128602630015198
0.0132488206870236
0.0137660231891112
0.0138489534119259
0.0140116588546372
0.015180946106136
0.0157494145917563
0.0143269953854828
0.0135748662852508
0.0145561477115625
0.0153661761268195
0.0151133009858079
0.0157186575438936
0.0168230150864182
0.0165214668805338
0.0161716775192616
0.0159367809601125
0.0164419842133918
0.0163783656406918
0.0158815678988197
0.0163696405338771
0.016652786380855
0.0166926852443859
0.017071622429269
0.0171253195132791
0.0169538706861857
0.016864052493491
0.0172943949005461
0.0181703383893119
0.0178920247837208
0.0162070811833048
0.0162249989967481
0.0169245941202217
0.0176723577982574
0.0171110589182767
0.0167238329147458
0.017198868837571
0.0168101605521661
0.0177742373883347
0.0192613828690276
0.0192128315262497
0.01862928168436
0.0184240248785151
0.0188819772579004
0.0195415055026608
0.0192379365325861
0.0185065613927766
0.0192684779456241
0.0201374474522368
0.0200454381661273
0.0195081861340777
0.018702091637639
0.0183933527622988
0.0190985183755577
0.0202376769845349
0.0206577484559029
0.0213331508019708
0.0212707462132416
0.0197360800082523
0.0193416843375127
0.020963088918517
0.0219622431286145
0.0216315869318492
0.0213411372303606
0.0215402701040764
0.0214309687726674
0.0217139805199334
0.0226269716933413
0.0233354343973095
0.0227294098048276
0.0225218876554838
0.0230816381841875
0.0235564079441363
0.0236989661327316
0.0233462474240069
0.0233978428099036
0.0229640828891005
0.0232082025191376
0.0241820307945872
0.0244412371478902
0.0240313074085498
0.0246383604995498
0.0252563046271926
0.0256449813266809
0.02594453615278
0.0259716056916612
0.0251525430675385
0.0245297799383244
0.0240171924412746
0.0243350604829791
0.0256778106251658
0.0261380792681144
0.026312263258991
0.0259719022241371
0.0254773420264934
0.0259181940593325
0.0261622006113407
0.0259530909729483
0.0263594270267518
0.0265651877770488
0.0263250552632603
0.0259499114093492
0.0255439831244085
0.0251112491517413
0.0259916136139364
0.0263069264693302
0.0257346853855834
0.0262059430362467
0.026685751921631
0.0266195811678484
0.0266748600434442
0.0273056102160346
0.0269455153824265
0.0259989745886233
0.0256393082396666
0.025624236884714
0.026495316514272
0.0268064952523466
0.0261622337057762
0.026586955949211
0.0269634834227414
0.0268355275191223
0.026435068631359
0.0267732782657788
0.0267703835294151
0.02590008566982
0.0267370419541561
0.0273879427664396
0.0269805140264332
0.0268349854684084
0.0271579315754248
0.0269987336836409
0.0267315717444993
0.026924605239207
0.0267873958259993
0.0269201982560267
0.0275537287153145
0.0281894969460677
0.0280218316791901
0.0282659472080302
0.0284590899116171
0.0273089434020098
0.0273583582910217
0.0277607957595268
0.0278114847290699
0.028022162414016
0.0274939992271178
0.0268992735406891
0.0270312788331212
0.027847735999802
0.0283499828494429
0.0285670309539823
0.0286259868140914
0.0284423302886398
0.0280362777815363
0.0282497245083781
0.0281033027352299
0.028007796251217
0.0283526352103567
0.0286545653189114
0.0289454732488277
0.0284718840868231
0.0276965102507102
0.0281479422779764
0.0284621144726858
0.0283489469598409
0.0281707565943696
0.0284178691991952
0.0289058941102113
0.0286815343933051
0.0281785718187459
0.0280164913350777
0.0281870277451231
0.0290109689121776
0.0293286789865408
0.0289660267987454
0.0287578203863896
0.0286924125246195
0.0287752281587846
0.0283783712360557
0.0284552193577939
0.0286255848882563
0.0285803868722025
0.0283962490669968
0.028174805301333
0.02853336892468
0.029146096320315
0.0291892032094557
0.0288808837306079
0.0281937736577984
0.0277268374247465
0.0283157932339358
0.028839658604054
0.0287635165077662
0.0283351994339598
0.0278822243119382
0.0279711114094258
0.0287980853901654
0.0283859116248204
0.0276443279310207
0.0281037689902713
0.0286289447657257
0.0279838605999895
0.0276076388967817
0.0279136926637155
0.0281972343885126
0.0283536392001185
0.0278412523780457
0.0272407398440155
0.0271561593788447
0.0273879130332642
0.0277024419292695
0.0279112773504425
0.0273542079438665
0.0268261452011272
0.0267573093006346
0.0268514706046755
0.0268272580262969
0.0270121852083914
0.0268886737882849
0.0266764536496816
0.0272620019312793
0.0274082022547961
0.0266677787770558
0.0262720018451082
0.0264024414703575
0.0264420973377292
0.0265295794657511
0.0262247137710048
0.0258683280552324
0.0258280972465525
0.025414807690164
0.0248927593816938
0.025032204708632
0.0254848037846268
0.0255433552855141
0.0253456459855337
0.0251960982412321
0.0252530240440452
0.0253099481702378
0.0251754955215747
0.024858553250969
0.0243641985375353
0.0243758784976275
0.0246177745235646
0.0241469539128935
0.0238951857926763
0.0237636080255117
0.0237209245853214
0.0241798351451147
0.0242139866932488
0.0238936532993869
0.0237132965165292
0.0234628278063576
0.0233965224653834
0.0234137742935204
0.0233201522435689
0.0230972945335408
0.0229652110557903
0.0227363246176511
0.0223471379278418
0.0222902680273701
0.022452368268401
0.0226511684417882
0.0227974112234492
0.0226915747049417
0.0227251386321369
0.0229363767345156
0.0223900087027435
0.021537729551022
0.0213096202522716
0.0215069651504379
0.021521597353307
0.0213579538380365
0.0215727053042409
0.0214733288323715
0.0212777039850086
0.021452460437458
0.0214810101014523
0.0212794847729893
0.0212751576304663
0.0212997934371253
0.0210418350464427
0.0210350533746221
0.0210683003649688
0.0208614731505473
0.0209626534209804
0.0209628629118769
0.0204740797660279
0.0201535774386898
0.0201931674050092
0.0203407562018842
0.0203349660986932
0.0202494986777712
0.0201134156426152
0.019802494707493
0.0198241111794453
0.019815500707153
0.01956943222805
0.0197022603119022
0.0196790485939642
0.0195162534699792
0.0192637251573583
0.0186118681737979
0.01834083030715
0.018413147833385
0.0183862761270761
0.0185953107549521
0.0185689105662955
0.0180747885289391
0.017955450410769
0.0183203499271304
0.0183602463360637
0.017977914089698
0.0177802581772216
0.0174853526798043
0.0172556088905829
0.0175608458546932
0.0178957889450258
0.0177646696497614
0.0174830670424372
0.0171162549674015
0.0169058615181965
0.0168141615191014
0.0167063046981604
0.0167063146693287
0.0168170075327442
0.0169834830655561
0.0169882713447316
0.0166921381762796
0.0162705370690602
0.0160023987061094
0.0160473619694083
0.0162110281345558
0.0160969978116957
0.0159389155636656
0.0159676527401337
0.0160686031330364
0.0161081299583217
0.0159130416757378
0.0156626790682434
0.0154182529956295
0.0153570773349289
0.0153566394731746
0.0152856256415945
0.0154168495773773
0.0154569638846885
0.0155259971257851
0.0157008473159575
0.0155884384685927
0.0153553637648904
0.0152233758095388
0.0151416435015923
0.015108266739349
0.0153470854285655
0.0154400053256237
0.0152184579248229
0.0151662750102633
0.0155792526246557
0.0158511144873657
0.0156165963522968
0.0155452303081613
0.0156943851843108
0.0157366969155131
0.015742498532965
0.0156202312750361
0.0154337036565965
0.015474255268322
0.0156195245493397
0.0156526901016302
0.0157552561850906
0.0160208867288755
0.0158712225976915
0.0153569498270246
0.0151212548735385
0.01531356834067
0.0153973222111271
0.0155040550677954
0.0156630429941972
0.0156977658742072
0.0158016311089673
0.0155472744739763
0.0152737343752514
0.0152106537411009
0.0149977490825525
0.0147084969102687
0.0146927401030954
0.0148861796251295
0.015229506460613
0.0151779297474515
0.0147097185704649
0.0144425852247708
0.0143528046914466
0.0144300589796156
0.0142887756773863
0.0140351938545907
0.0140251972232015
0.0141202953235198
0.014022390257866
0.0139146951692376
0.013919431105212
0.0140174109194543
0.0140935660208777
0.0140161026821218
0.0141235681244265
0.0140282105509472
0.0138244665758659
0.0139471188812684
0.0140278357484543
0.0137728203426233
0.0136192173002491
0.0136467485505214
0.0134190805926121
0.0135871719846317
0.0137623034553076
0.0135326315834582
0.0137156744547084
0.0138810350726622
0.0136050765948024
0.013362865008905
0.0133924387998758
0.0134703218405841
0.0133783646151143
0.013037302533981
0.0129918427936456
0.0130700735602837
0.0130884887144071
0.0131496983104455
0.0132719975168893
0.0131958993874807
0.0127474811943894
0.0125466495996193
0.0129164624145024
0.0130208678938787
0.0128514698084103
0.0125906081909033
0.0125015821867228
0.0126254507263762
0.0125370473104007
0.0124843491277326
0.0128685477658934
0.0131281596541278
0.0127327527796722
0.012299342013764
0.0123761391230537
0.0127520817518483
0.0127235715014605
0.0124037320933836
0.0122080210932432
0.0120798834820305
0.0120857874179723
0.011911408938957
0.0117895108171082
0.0121264778513925
0.0123141146944093
0.0123051544095708
0.0124529969817088
0.0125954061868716
0.0122864315868609
0.0120891507310901
0.0121280942538939
0.0121222281417496
0.011826893179846
0.011779841606176
0.0119750104758044
0.0118510151849117
0.0117313812707993
0.0117727348937034
0.0118414081064765
0.0119230341379538
0.0119055192002052
0.0119857236013452
0.0118937610674148
0.0115584029432689
0.01161417739584
0.0116408303145056
0.0116285280314879
0.0116630991527442
0.0114877896724483
0.0112772511455244
0.0114590001811645
0.0114870596296994
0.0112935703311923
0.0114103551598626
0.0116788797874367
0.0116104191094762
0.0114087694230658
0.0112257205544096
0.0113607264113916
0.0115930492449261
0.0116614345018499
0.0114503182285636
0.011311344052086
0.0112518812784976
0.0114943813304254
0.0117468583713755
0.0114916011371993
0.0110909541309745
0.0110642945355792
0.0112177203992145
0.0111970165062232
0.0109639268256617
0.0108867570283652
0.011052333157616
0.0111985248269776
0.011042504104454
0.0111190659039847
0.0110260251229177
0.0108699609658074
0.0109517867708078
0.0110449448299452
0.0110889944342894
0.0111429664509197
0.0111152767261853
0.0110728863257867
0.0109630231247594
0.0110120752641326
0.0109111636691728
0.0108505864431055
0.0110850780514218
0.0111153389403985
0.0110261710389355
0.0111695805717313
0.0110868249808688
0.0108907334657566
0.0108514939912532
0.0108210782722749
0.010953565547834
0.0110185755442116
0.010800597662976
0.0108436722027698
0.0107493844667855
0.010738134265993
0.0105811392969175
0.0102843458689226
0.0105831045428432
0.0109764420404019
0.0109712561485952
0.0106451477348323
0.0106167009369864
0.0106264433640229
0.0102986957087063
0.0103795953433494
0.0105769740116489
0.0109721435980679
0.0111581532633517
0.0108936193439599
0.0104146249067994
0.0102454794816618
0.0104321033773289
0.0103238512637828
0.00995527241439303
0.00997679410417866
0.0102533098180097
0.0105259512268966
0.0101690776920367
0.0100209219332024
0.00997861441417638
0.00987696893339634
0.00989027827849016
0.00963910788788964
0.00962043070273672
0.00951483476265292
0.00958376784770164
0.00975796672570118
0.00981636951029929
0.00957890474824997
0.0094196868374793
0.00980281899710315
0.0102525819395862
0.0103271278332433
0.0101346903619241
0.00993693284288722
0.00949568207632164
0.00931937095855806
0.00963796458044017
0.00949605153793123
0.00897393785817293
0.00897693274520712
0.00951107955460392
0.00920831791381497
0.00904261634773923
0.00926251912044639
0.00946968387048026
0.00918183908817884
0.00884292188395439
0.00923155333597044
0.00953507643242242
0.0094433451101673
0.00924174172800792
0.00917068959796761
0.00941775525498638
0.00929408394607341
0.00854259650198577
0.00822895240893812
0.00900502446751086
0.00957622200926465
0.00923994680702404
0.0090528778536979
0.00879964345361469
0.00891490365304685
0.0088223767738975
0.00838461943180707
0.0086635112987825
0.00901019491928244
0.00921508738658031
0.00913643003094013
0.00875239684327865
0.00883084011934069
0.00889539378145055
0.00867698758116126
0.00899796574567974
0.00901145375036512
0.00873445748995518
0.00892518933919476
0.0092807765697019
0.00904410546124438
0.00887244228601685
0.00897231885380892
0.00824322938289637
0.00816660645033318
0.00875229825577389
0.00881085706467588
0.00863288146254353
0.0086526104962261
0.00922792624076245
0.00935608465524963
0.00890563919027968
0.00880569603390898
0.00875387490316857
0.00914407496679153
0.00925449187963276
0.00906130671814673
0.00888255795144685
0.00870126026695214
0.00856631582691845
0.0088879341181029
0.00882213263317973
0.00853367036463406
0.00841021470043712
0.00867032816110725
0.00865797122571075
0.00859953225834148
0.0082859781392187
0.00842195366976291
0.00900894575702348
0.0086448904697054
0.00866324268977262
0.00864856723965099
0.00870899578871547
0.00927922399022677
0.0091458196845659
0.00894985742915158
0.00878798583860737
0.00883447284244018
0.00876440839933302
0.00866281378563746
0.0083149920326067
0.00789302321738981
0.00809963545633298
0.00881822273360191
0.00892984984286496
0.00875504520662768
0.00879075333084719
0.00920220014973181
0.00919155284585906
0.00875535559018826
0.00820399353004093
0.00829414334178727
0.00866843103584132
0.00844847816845404
0.0082885370282886
0.00803506170381598
0.00818816842567231
0.00842391813169896
0.00808186267180504
0.00775765363627143
0.0081896302228909
0.00852768552663095
0.00888787965721151
0.00870857544255431
0.00800508582559239
0.00762277664431155
0.00772072746472692
0.00859163112018456
0.00907009118845283
0.00928972783971532
0.00918594450791311
0.0087528152376574
0.00848394947926013
0.00862185347944126
0.0084021479162503
0.00831342114722772
0.00856905681750795
0.00871204046849625
0.00878461058000065
0.00897606590282127
0.00911905427620759
0.00925666566509556
0.00935588381853549
0.00942002529245475
0.00977933743204039
0.0100363428264039
0.0100274370276401
0.00958159918513091
0.00924824035823675
0.00918827926065773
0.00912086328209296
0.00927902330883482
0.00951462349581052
0.00936554236156917
0.00879336694482094
0.00858835297203447
0.00891220428844147
0.00943408716944913
0.00969994286304244
0.00945708272465302
0.00913385075585921
0.00917761149325625
0.00898567656755411
0.00897584183901415
0.00929375024210736
0.00868855809240431
0.00802583076857901
0.00778060787995743
0.00774925130151263
0.00766232506663909
0.00739648846070479
0.00753122796080293
0.00800586498931827
0.00787667345189534
0.00712181142010214
0.00636296025536695
0.00648514853660262
0.00673782871176603
0.00748443039128909
0.00794460163475542
0.00700423749007033
0.00608760097210122
0.00624967988725816
0.00653555567459013
0.00651196401563823
0.00621019531745916
0.00667397029636768
0.00718781978573989
0.00673556433958919
0.00638361616892285
0.00639224219765653
0.00639445609361444
0.00587632547103809
0.00534586496825982
0.00599681195635614
0.00636145647291708
0.00531552271485113
0.00527140585828609
0.00499685228131297
0.00461549989704269
0.0046139240008898
0.00451913996717596
0.00475036056736602
0.00604905736304859
0.00530463941398274
0.00473957766783795
0.00494463683041718
0.00456731558859854
0.00473160335121695
0.0041806935299101
0.00315597211981225
0.00394216563664491
0.00398363983272732
0.00379559779947158
0.0045557239657713
0.00531576488231707
0.00574935143792626
0.00443034222947289
0.0041319674542732
0.00594107848250263
0.00516849833684257
0.00299750037161157
0.00281159804836443
0.00368593864267368
0.00361308552509879
0.00265408528254571
0.00102627753805707
0.00159535855994747
0.00239502507302843
0.00178915257709984
0.00218067985693988
0.00291504109038019
0.0020630764724058
0.000200461689110494
0.000832005195102787
0.00161930998453535
0.00173880054185407
0.00197869033883008
0.00192804489569047
0.00299880502610131
0.00409399592680911
0.00353627724555099
0.00319434835578276
0.00375084509433508
0.00374073678331695
0.00320169532530751
0.00313198127645876
0.00427913820849174
0.00526025426258339
0.00575287329508053
0.00547760134886112
0.00515020545651896
0.00496185071592221
0.0049660065397418
0.00555870278454314
0.00694664152375839
0.00731962284023466
0.00666947316290839
0.00643886066316329
0.00666880207234641
0.00604762098593784
0.00484118412513496
0.00469873015699996
0.00561511396433156
0.00661636362496807
0.00700024208181567
0.00554622934237478
0.00508864198296722
0.00636447919547163
0.00659144306197787
0.00594870831893578
0.00543826826370036
0.00549850921805933
0.00610013299614844
0.00658856668105772
0.00619616110761998
0.00582502449455058
0.00605233230548765
0.00593595724456963
0.00535543758487418
0.00505009264656274
0.00495608095751048
0.00485884675584455
0.00491673793070455
0.00488689169587346
0.00420806682173601
0.00335555957262684
0.00375431023346418
0.00488210330246047
0.00516243795904787
0.00457457546614578
0.00305930698320117
0.00136822090540592
0.00198808201457804
0.00272218152582893
0.00303405038222361
0.00316098305919499
0.00105705402480732
0.000341580127234051
0.00264528867254028
0.00177365723288921
-0.00137978554556268
2.15950973132364E-05
0.00289793274059347
0.000952631151353921
0.000259236135567236
0.00232688376626398
0.00242317254604182
0.000698906543669646
0.0010712279267071
0.0016971005926272
0.000934230996005707
0.00194050440185522
0.00421357026955814
0.00453496103256159
0.00407061159856677
0.00365409176665177
0.00305085970675257
0.00266131465962114
0.00223129861720946
0.00188230434266484
0.00222437000778641
0.00258407856538589
0.00191337817861616
0.00233187451326011
0.00423733814382858
0.00511300097851148
0.00333589727370873
0.00165909008925637
0.00181244064231132
0.000995937900586163
0.00025037749741258
0.00189841456320403
0.0033552636753365
0.00422532061856773
0.00407752667303396
0.00290866164497192
0.00372020711677385
0.00614109490128193
0.00595147568189641
0.0031880451328449
0.0025239967426503
0.00373486733086215
0.00514874138218084
0.00553576529091779
0.00480215174764757
0.00495960563724057
0.00577122248716993
0.00514264024118791
0.00438031491995759
0.00524502758613313
0.00608593427773943
0.00522231096821263
0.005215311507425
0.00591286146152665
0.00594697495803163
0.00648314156915196
0.00684143084508525
0.00602630165923376
0.0056989293397291
0.00684924224355439
0.00739903799969168
0.00667664329303378
0.00646230330946394
0.00688540635084439
0.00669112072130895
0.00629498147166227
0.00672568789293353
0.00720206626629014
0.00678379376931138
0.00633128436573214
0.00712909208354191
0.00811799431051319
0.00779506840072889
0.00713569386457335
0.00713333098729262
0.00697500050728437
0.00684347838971023
0.00654091760449976
0.0067446705577308
0.00735908404259759
0.00719929114400102
0.00706117255514798
0.00703017847405363
0.00676872158821603
0.00689574758901611
0.00712405643613013
0.00706819776247139
0.00712841142507586
0.00758884883886287
0.00751759338109361
0.00706340409976879
0.00703966774210752
0.00707382880997312
0.0071113113966358
0.00731716517204092
0.00739411433902836
0.00736425375643548
0.007138997677805
0.00721640342711218
0.0075546598261527
0.00768732611926923
0.00769664343074446
0.00771353637064342
0.00737979521012719
0.00725157972328568
0.00760639321830303
0.00742180535869938
0.00689468367831389
0.00718065083586281
0.007296222887368
0.00732857802219912
0.00778760309843689
0.00788715438962787
0.00771314625618516
0.00730492489832275
0.00729152825165758
0.00731822707567003
0.00716506807799403
0.00755279359967958
0.00800532544334418
0.00800357752704198
0.00786734716745904
0.00776302511397764
0.00786735235658316
0.00810479554346034
0.00788616548277619
0.00744468337770207
0.00729115334489989
0.00775760597335507
0.00838775407495102
0.00848108242033123
0.00825358888633776
0.00814262099298871
0.00827095163509636
0.0083690599879495
0.00865486232211294
0.00843049811842078
0.00804821201616734
0.00801673071652639
0.00868441962464103
0.0088829652441913
0.00848050230515057
0.00848336601320725
0.00866599600317029
0.00886897329852254
0.00910395043929173
0.00892297770708096
0.00894884514623735
0.00922912896273664
0.00915703187746601
0.00933479696214781
0.00991483466741499
0.010316912123336
0.0103072893084482
0.0101674539921209
0.010195404345244
0.010450081456422
0.0106065392729028
0.0103019058528602
0.0106315434781323
0.0113282956915101
0.0115090968098255
0.0117751406295413
0.011740806874078
0.0117814101941054
0.0121496081199037
0.0123231402066798
0.0122063648115288
0.0127802276581146
0.0138117661844391
0.0144537111324339
0.0150118548611974
0.0156834343704059
0.0163570957988498
0.0169533404629673
0.0178403945111076
0.0183884279172253
0.0194004249010223
0.0220754031903278
0.0237242866669927
0.0261183399327615
0.0288372992869949
0.0312246561600708
0.0342752006128109
0.0376080645143853
0.0402198011980729
0.0441166728873355
0.0497759911008646
0.0540869676630919
0.0579147202215384
0.0610381814325432
0.0648302851696089
0.0686041631649384
0.0715508183098233
0.0748631051657783
0.0788196762669474
0.0817497551868955
0.0839650054680115
0.0866625313544199
0.0894812907130583
0.0917195172046783
0.0937187986071986
0.0953089172616825
0.0972102805564534
0.0994787248049513
0.100684079872112
0.101374644671789
0.10200509188592
0.101828982902465
0.101262330329955
0.100730713925867
0.0998846545798681
0.0985426999001837
0.096928289128622
0.0963009162990735
0.0958219058641253
0.095099226054479
0.094656688118736
0.0944216504841898
0.0936666503819003
0.0921706942689519
0.0909093138035417
0.089490485703674
0.0868894804607077
0.0844931945621515
0.0824142616033289
0.0800524639538389
0.0772442010888836
0.0740701515337452
0.0710006205389251
0.067961503707944
0.0647290148055542
0.0615900202100996
0.0586473610889114
0.0558492921941249
0.0532225932239888
0.0508278996409512
0.0488823253735886
0.0472455496754723
0.0456912131203855
0.0442528666766781
0.042876604655866
0.0416095342408238
0.0407285190009806
0.040322933292989
0.0390556269920271
0.0377478369176059
0.0370591114988184
0.0363940956877331
0.0353331662419446
0.0346400419084192
0.0340360302673287
0.0337539895515233
0.0342846376190169
0.0339522633738721
0.0329208871977005
0.032829248060501
0.032309909115358
0.0319539439789229
0.0315279049434399
0.0311345613593394
0.0309020768996854
0.0305389184851047
0.0304543997005025
0.0305417392374602
0.0296106858789733
0.0289677805201527
0.028990889529545
0.0284597112012212
0.027860606128481
0.0274565139441377
0.0271005703637
0.0266943630555069
0.0264157899197384
0.0262598855496232
0.0257897133024043
0.0255949369881292
0.0248627109400225
0.0242852842541645
0.0239769552050141
0.0234064612992061
0.0236711224307497
0.023634684703578
0.0223083836231634
0.0218563110988071
0.0217414180873685
0.0214900228425964
0.0212602188423761
0.0207655884352067
0.0201683736160001
0.0200425834181695
0.0200414112239694
0.0199729441287967
0.0195880872570883
0.0195225063495675
0.019833822057192
0.0198913195712887
0.0198329135790115
0.0200142639367773
0.020184484385913
0.0204101309458781
0.0202705784146062
0.0201384653235423
0.0200368461190756
0.0200651197798314
0.0199441824633233
0.0199075355563512
0.0201378886731546
0.0208269087041957
0.0205903064532497
0.0202229528061079
0.0203200148444535
0.0204282415217899
0.0204485038382808
0.0205082357652567
0.0205948057642738
0.0207111353624635
0.0206488146564173
0.0204360300384442
0.0207947584399835
0.0208311300124674
0.0207186209648045
0.0207688203947895
0.0209589909635649
0.0208879819579871
0.0208726967200761
0.0211394619992005
0.0210188608549352
0.0212605090722394
0.0216870844542294
0.0217228571745804
0.0217314767078604
0.0218406642712373
0.0219634262785555
0.0220767485222637
0.0219963462130162
0.0221082089966292
0.0222790839365602
0.0221425588117296
0.0223343277857957
0.0224056825211324
0.0224043311805103
0.022353677362349
0.0225016812144595
0.0226824496645447
0.0230363078465234
0.0233320533666661
0.0233101726824738
0.0235235752793735
0.0237976282795274
0.0241138040845822
0.0243848791063639
0.0247888551496219
0.0250851071429933
0.0251846911681561
0.0253388495987738
0.0255804766707773
0.0256991281031581
0.025823590993755
0.0259146953811355
0.0258940085472796
0.0258335360263114
0.0258446285665009
0.0259255221364306
0.0258438445513324
0.0258273249894761
0.0260089654697851
0.0263387429679233
0.0268029946980555
0.0274469897631834
0.0283319686702179
0.0294958829309009
0.0309979264486081
0.0330940070791413
0.0360430925361229
0.039832977788438
0.0446506442678591
0.0512135885010141
0.0594901373719682
0.0695517244507012
0.0807883660942408
0.0913153160565966
0.0980961014020419
0.0976294894725073
0.0897691306993501
0.0781982812968836
0.0663478924041552
0.0563246483678939
0.048339161205497
0.0421027029940621
0.0371294631302773
0.033199246639224
0.0302037135138191
0.0280837002657366
0.0264467467986532
0.0250137260432829
0.024022110716661
0.023264776334608
0.0226080660724698
0.0222133271307265
0.0217471657765224
0.0213672019381154
0.0211634995338974
0.0209766284215346
0.0208097952566407
0.0205441576816537
0.0203605852460218
0.0202545321628576
0.0201424117445635
0.0200885801459799
0.0199335263570087
0.0197284070715351
0.0197286335328257
0.0197685946158398
0.0198007994868483
0.0198926515555764
0.0199795895555266
0.0198834352515445
0.0197435486743171
0.0196979582607045
0.0198507351174243
0.0200732910277292
0.0200546085556269
0.0199884712741888
0.0200763344889923
0.0200265748819237
0.0201279396395032
0.020275940541791
0.0203341928115056
0.0203502772402784
0.0203577912420382
0.0203577402739645
0.0203747835709079
0.0204615805401277
0.0205412136875918
0.0206921508618939
0.0209514213910242
0.0212171474671904
0.0213339336121056
0.0216247944941537
0.0221206415248986
0.0225454927892648
0.0229481009632558
0.0234276221987297
0.0240887714660445
0.0244714637446221
0.0249148223005448
0.0255193930748876
0.0261126191110467
0.0266485823091101
0.0271092304862213
0.0276779908144596
0.0283551217661916
0.0292633143693626
0.0300517035643264
0.03080484829849
0.0316889512473563
0.0326423683561696
0.0336479503846589
0.0347108050492665
0.035919826479695
0.0372152146150352
0.0384334282029245
0.0399122950282099
0.0414711483426712
0.0429530717605964
0.0439116117105325
0.0441685615802002
0.0438671039458968
0.043512870882304
0.0436405843250934
0.0442951007453502
0.0452377431828032
0.0462971981398481
0.0473867704185722
0.0485446366319279
0.0496444207209054
0.0506174502612001
0.0517256572421164
0.0528874914131527
0.0539892126963931
0.0551714753216759
0.0562211354637549
0.0573531417760722
0.0585856005028355
0.0598113605647506
0.0610465181104618
0.0622274487178424
0.0633222987757254
0.0646276165851
0.0659770401383069
0.0672352708020221
0.0684858322894016
0.0696891102818263
0.0707639277979061
0.0717957509890583
0.0728354658202552
0.0738964054907146
0.074873350446637
0.0758529708786104
0.0767839540064414
0.0777711340127375
0.0787682733510195
0.0797321068328331
0.0808178744990756
0.0817607233357218
0.0824740359763643
0.0830766584567044
0.0836855841957571
0.0844410925494894
0.0851998525776728
0.0859076643202388
0.0865565579314268
0.087337896588342
0.088239967834444
0.0891214742270488
0.0904503374833227
0.0922995290945
0.094281792226982
0.0963195910623453
0.0985813589475125
0.100953192924166
0.103149817260482
0.105634228450713
0.10831816548478
0.110795876840462
0.113237368930119
0.1160929190803
0.118887884420074
0.121535351590854
0.124305534405422
0.127236969773544
0.130005697853088
0.1327259772765
0.135433597111767
0.137898792564606
0.140176500633316
0.142044265050179
0.143732815645969
0.145389053111477
0.146534651917519
0.147324074594366
0.148183470842891
0.149055882252022
0.150001222925919
0.151055432684998
0.151968814726173
0.153163531443072
0.154203194374691
0.154920419468577
0.15602662224441
0.157055615148448
0.157738359801193
0.157930280791568
0.158255563111592
0.158428068478512
0.158358016900222
0.15828407200759
0.15810406052081
0.15777878180134
0.157097811056265
0.156627163270811
0.155979884693275
0.155293479103315
0.154497234530003
0.153319948981843
0.152123653199737
0.150814458854423
0.149391912873416
0.147802211989958
0.145781636163887
0.143895662128087
0.14219567899961
0.140267653166007
0.138159486715271
0.136143092996847
0.134030525011492
0.131982001067246
0.130239477770731
0.128568309196938
0.126776874472013
0.125208651796562
0.123662411407534
0.122364479367036
0.121181662442019
0.119921072598843
0.118779014141875
0.117913770099142
0.11724667895716
0.11662661623975
0.115778595338055
0.11478671836554
0.113891674635435
0.113483130804732
0.112795190637013
0.112156147316212
0.111838978267692
0.111594162058765
0.111689705430222
0.112018521252521
0.112285764636313
0.112236125550019
0.111465537236672
0.109962524595708
0.108036428817981
0.106160425212432
0.104075710592586
0.102081254486433
0.0999329719573102
0.0977937045495405
0.0961820301430539
0.0944416731949417
0.0926860832364394
0.0912846057315876
0.0897250296517992
0.0882847986778601
0.0872799200817746
0.0865033423974089
0.0854825330115421
0.0841566836957614
0.0830750214861785
0.0822393209254343
0.0814274855961719
0.0803106396305662
0.0789141792235834
0.0773479519107883
0.0758163102518767
0.0742946018667279
0.0726596501874448
0.0714235279406589
0.0702743063092797
0.068946103873949
0.0675277702716769
0.0661837144611676
0.0652053402612642
0.0641052225220942
0.0628294178633234
0.0619237630808317
0.0613083138832651
0.060969786899149
0.0604426710622594
0.0605704785063021
0.0609351345720306
0.0603892871969619
0.0601970494597441
0.0602338669862248
0.0600937069548611
0.0603382841027145
0.0600197924515753
0.0590456966960594
0.0588225306919911
0.0590838050655506
0.0590302974476985
0.0589106435002254
0.0589792644742206
0.0604247534226723
0.0626851963982172
0.0660524861142868
0.0710679536179654
0.0759261633312346
0.0815301964753008
0.0872912847910498
0.0919398788185109
0.0941683855235398
0.0956917470806291
0.0966740088368261
0.0975217010576418
0.0982088408004157
0.098744059515899
0.100630435447511
0.102722453602976
0.104246982382494
0.106041655385914
0.108296278713639
0.110030761333106
0.109837612860524
0.108623308585287
0.107710152100755
0.107192024653921
0.107023224224529
0.106189653071715
0.104578779033067
0.10364167012279
0.102798706668269
0.101766525362217
0.10105481655447
0.100441642542379
0.0996329655035101
0.0983856864174497
0.0972374866987296
0.0965314766696183
0.0957656788004127
0.09511359294457
0.0946531098371181
0.0935066489322429
0.0921657198914134
0.0911131486321941
0.0899094850744459
0.0887999501817961
0.0880781772015963
0.088648236990263
0.0893671676765916
0.0885032183000252
0.0870675986658081
0.0860211497126005
0.0851414974341936
0.0844973836393779
0.0836743791367313
0.0828665237428628
0.0833382428024012
0.0833773357533706
0.0822138122530465
0.0814045112843372
0.0817535982802241
0.0837710465845487
0.0860761711743428
0.0888263426388342
0.0920728300859999
0.0938465287884697
0.0940509321893227
0.092596543592572
0.0905012509129571
0.0889937261427799
0.0879026274537258
0.0880981391226189
0.0885483497524251
0.0874387114572846
0.0838180335866868
0.0816027170106905
0.0830733966925803
0.0843268935950879
0.0856030090078167
0.0861895031688256
0.083569759569846
0.0821144130943517
0.0826037892229401
0.0839733268142332
0.0849139361075993
0.0854727178434165
0.0852923109134994
0.0846488857369536
0.0871672035220996
