1798
3999.43349933624
650.420452594757
1
2
4
0.00950343252389238
0.0100245784260941
0.0100268369879213
0.00957387567777077
0.00931066585953005
0.00934460986789528
0.00931743258566404
0.00945240890687625
0.00968439436264873
0.00976160846467079
0.00983990745021367
0.00939157772682474
0.00950320487121879
0.00949365328604625
0.00920078021985906
0.00957731515797271
0.00961372086525833
0.00919849351482015
0.00900529601721012
0.00933965288694715
0.00964522543266592
0.00954890257823082
0.00958346774463673
0.00941079949212725
0.00948194540021562
0.0093653818987087
0.00927324667870605
0.00950188658918101
0.00970435768679699
0.00966089205745967
0.00948780774395287
0.00948904752900258
0.0097515723871583
0.00975930152745079
0.00944895958248171
0.0097753711365695
0.00971102240387725
0.00916740459260656
0.00888194350488806
0.00923730613454703
0.00912638745405588
0.00904248708120451
0.00971987704302475
0.00996176682925815
0.00983285264673199
0.00916076876290108
0.00900801283063133
0.0093815398419887
0.00928053906893432
0.00944198411236093
0.00938986464546161
0.00832830936749877
0.00802617015073355
0.00882857829074029
0.00890366950242147
0.00941388849923267
0.00967871794272908
0.00947918979877018
0.00922956492244787
0.00886817654566026
0.00865612285982557
0.008729108452246
0.00940892497453259
0.00931360892343982
0.00883191782409097
0.00904652798181319
0.00925257816450105
0.00927281279070584
0.00947816941572705
0.00933541524910313
0.00919960714960227
0.0090086556911198
0.00861360043907911
0.0086817239849953
0.0087541190521231
0.00885740440350668
0.00933514668260004
0.00955206854979176
0.00873217464200657
0.00799336329532842
0.00842123242583392
0.00846168101234606
0.00894868717183906
0.00967987122531434
0.00962546272471788
0.00891466656457329
0.0084092294245212
0.00851116078520287
0.0080542369117177
0.00825241698783528
0.0086423742589438
0.00874464267123745
0.00864994165945171
0.00865090396137462
0.00916303909220788
0.00939181444440615
0.00924222152323572
0.00924719682514064
0.00816488529303367
0.00777689875691422
0.00803752919795154
0.00858342524261758
0.00872025706333018
0.00854023088361459
0.00870892116724365
0.00910375228184264
0.00836140575306987
0.00851449237405422
0.00888338126818254
0.00833524843699547
0.00832533595772684
0.00893023067753481
0.00923290920205333
0.00908031883545433
0.00898379290539003
0.00887137103410686
0.00906829969505835
0.00883405486461745
0.00818798058287858
0.00872666113280962
0.00894721077795218
0.00846960365045112
0.00858102947692753
0.00908688595020477
0.00908497520355059
0.00869079550329079
0.00835290854204098
0.00803494084283903
0.0079813832190812
0.00818047016813993
0.00864702390967192
0.00906485982715326
0.00845812587506507
0.00833563553855784
0.00826124572761014
0.00848799928077801
0.00878538653156919
0.00775482834407872
0.00743779521629294
0.00773753072070508
0.00762332743475998
0.00803024870558256
0.00803727012829707
0.00758179002041486
0.00740930933894665
0.00795286926431017
0.00851003962614066
0.0082619254592531
0.00791502807511308
0.00770965252337445
0.00797869621861027
0.00813470928770507
0.00882697752229383
0.00950734931840511
0.00928635539716929
0.00847582012817147
0.00834518172839004
0.00876741419793578
0.00922294325397871
0.00958636864063303
0.0101201740745533
0.0104314428883162
0.010667013137052
0.0111288911808073
0.0110051580744179
0.0108917452587093
0.0114806525839907
0.010993362753144
0.0107553059183834
0.0105953020224702
0.0101521143626868
0.0102613667988059
0.0108503870414589
0.0103874283339671
0.00973557605636611
0.0102479547154947
0.011021400929237
0.0106600755980434
0.0103463287451317
0.0108309889511742
0.0116062861045187
0.0120850613417378
0.012680264987117
0.0131885126806532
0.0130162841533595
0.0130874688852254
0.0135748005511137
0.0138183785171994
0.0133549388904487
0.013424973400338
0.0141067283660708
0.0148978761837726
0.0155957464520951
0.0161547651923602
0.0162313341316382
0.0170163091077544
0.0174034757949703
0.0171166308502142
0.017229244112655
0.0178229163922012
0.0184043459136531
0.0192089622626367
0.020189760527305
0.0206074956664801
0.0201899091689213
0.0201837321684679
0.020379739803989
0.0208212524343121
0.0211762001024333
0.0213389947379389
0.0211347697269927
0.020949241915158
0.0215481551712222
0.0221018404203593
0.0215161563908853
0.0223597270577055
0.0234448231282093
0.0223782856661101
0.0216690573976004
0.0221054975164635
0.0221382507459247
0.0217522202027425
0.0212450854555067
0.0218045586496559
0.0226799660612704
0.0225938780985648
0.0226797574654739
0.0236737697325457
0.0246467324874767
0.0245531639386097
0.0241951660052438
0.0230594364890424
0.0235017447486146
0.0242664508939306
0.0240421133534143
0.0231745375827796
0.0230550616350549
0.0244404142813698
0.0249310829157978
0.0247004518509644
0.0240479706786574
0.0251379649809151
0.0267244495896356
0.0263688568331944
0.0251199059943013
0.0250685594887735
0.0261822947052166
0.0267868171603747
0.026640323726211
0.0267733603694213
0.0277591169098329
0.0272717268329605
0.0260119063792745
0.0254116517166558
0.024873013248609
0.0265059823649057
0.0281609580205026
0.0280864774484936
0.0279091535807287
0.0280603360088837
0.0277647893302758
0.028032582367816
0.0283323473440083
0.0294503523296649
0.0301993631459862
0.0299652598740152
0.0294722156665804
0.0284355414554994
0.0296384645683684
0.030946125820064
0.030638712546596
0.0306168386942332
0.0302041571424272
0.0303978392377256
0.0317445059110181
0.0323992559424005
0.0317582129084389
0.0314677417590311
0.0317171607503076
0.032286388300683
0.0323272886289369
0.0319619956735453
0.0314753993613652
0.0313417570998384
0.0320662054993967
0.0335358844290414
0.0338229559597047
0.0331506134976908
0.0335611354866722
0.0336406804133109
0.0331658808534495
0.0336262496557214
0.0330701485375703
0.0330951366998736
0.0336958148523123
0.0331085304554391
0.0322550579987359
0.0332787806093772
0.03422963702684
0.033467392934978
0.0335467931923962
0.0340622065235967
0.0342347336683074
0.0342739224802448
0.0341436740286804
0.0343409334385906
0.0343964787188755
0.034314938931865
0.0341666117635929
0.0342593718901625
0.0341964760173587
0.0340860265917928
0.0351143547634835
0.0353950096983706
0.0346971862895958
0.0345960238731493
0.0345764895905395
0.0346040251684065
0.033902702668521
0.033597073729214
0.0345643128511441
0.0347379947429481
0.034299114350742
0.0346937275485003
0.0348348006145115
0.0346952714747
0.034176758695237
0.0340269683243912
0.0344242004636536
0.0343683239406997
0.0346128847287063
0.0355772234327676
0.0358929326477016
0.0356802999990321
0.0357304478722664
0.0357524970952032
0.0356391031423237
0.0366404054677855
0.0371775932536297
0.0361953668655395
0.035776439883489
0.036440555361386
0.036748423994564
0.0366747493595537
0.0362401563432631
0.0358408277423689
0.0360412859699404
0.0367095367457973
0.0371787217016173
0.037597038283304
0.0375047101967287
0.0374378937332633
0.0373237436277471
0.0368196022452422
0.0370300979099802
0.0375471865000023
0.0371466400099966
0.0369942028583346
0.036995947384032
0.0371339216382392
0.0372558744154192
0.0368539275587623
0.0369529993455645
0.0378376168782443
0.0381413209857648
0.0380775899498316
0.0382992113762801
0.0379695406392252
0.0371554073724107
0.0378302479161725
0.0385088073264488
0.0383787213026038
0.0381957465029014
0.037964943643069
0.0381511981975297
0.0379147981534934
0.0377942649438465
0.0383219390124554
0.0381383707171238
0.0379092605745382
0.0379554638870674
0.0375701002082241
0.0372927465531225
0.0372324904753157
0.0371891134982742
0.0375589401131457
0.0381134383550103
0.0381409231625451
0.0380774382359706
0.0381817901523315
0.0383201678313834
0.0384329486732337
0.0382571040783498
0.0375635426708715
0.0375523275772387
0.0378900516819097
0.037595379026624
0.0370426136732028
0.036862455830355
0.036883748368837
0.0367805000307404
0.0372088749223802
0.0371322770968146
0.0365620611822655
0.0361660037512004
0.0362632477448642
0.0368734803057729
0.0363872695600985
0.0357236037336071
0.0361397797706204
0.0364182690341434
0.0363653406375081
0.0362610070320502
0.0358599534306828
0.0353071865722812
0.0352942510447884
0.0357249534722369
0.035374221348214
0.0349017489180613
0.0349263716878905
0.0348252228739512
0.034680866845004
0.0347824307549281
0.0345052962380588
0.0341773028084917
0.0341618926771198
0.0339033728133597
0.0338860171158169
0.0336362565007689
0.0333136232030735
0.0332012390405397
0.0332188953169587
0.0334804123943004
0.0338351589913597
0.0338345547784916
0.0332665999809164
0.0329329558340049
0.0330156041393834
0.0328041627327363
0.0323809814136095
0.0319787057882781
0.0321109657873696
0.0323256878614496
0.0321034386944987
0.0321493411245847
0.0318819205564018
0.0311976914914288
0.0309112627289825
0.0307339061172053
0.0305298649318158
0.030950483331847
0.0314472910200566
0.0314017303177082
0.031236542150904
0.0306881277145486
0.0298689998434056
0.029589245498045
0.0297709822359133
0.030013799562183
0.0302853855159266
0.0303532961259805
0.030130593736947
0.0297138350949561
0.0292747891043274
0.0291551415169586
0.0292063129465483
0.0289488250496894
0.028577890645238
0.0288416932006408
0.029238796593137
0.0289574036696934
0.0286712087839776
0.0286092524954436
0.0283964029321429
0.0283753426820365
0.0283536106456987
0.0279111471137349
0.0280160028117045
0.0281321927266116
0.027587669148029
0.0274097838626429
0.0274216588616619
0.0274504036986931
0.0274882863070198
0.0271101563707908
0.0266719666402195
0.0266370796709708
0.0270320437981217
0.0276467281939397
0.0275340323496941
0.0265121362576629
0.0259978916409935
0.0263575608945943
0.0265433025972481
0.0262845978517176
0.0258584408143952
0.025517834091269
0.0254996987531798
0.0256912281147742
0.0256676827633152
0.0253323997176872
0.024940200109667
0.024811355752398
0.0249815908470571
0.0247579840714269
0.0243040621629128
0.0240301944197852
0.0241149283407833
0.024425538155057
0.0241672292320462
0.0238121238515291
0.0238042897618893
0.0235399927062345
0.0232840263516101
0.023419518130589
0.0234228054800673
0.0231756289291999
0.0230440649702467
0.0229526040830198
0.0229249819328826
0.0230368429297327
0.0228574865926755
0.0226630499844521
0.0224590797266763
0.0219321938460508
0.0219200979080996
0.0222234245388177
0.0221780264153549
0.02225220000893
0.0221814250550346
0.021779895527961
0.0213744981771479
0.0210991612259041
0.0211468111689644
0.0212355903532211
0.0213316649431206
0.0213173656036206
0.0209945586982005
0.0207947509445074
0.0208816504967423
0.020963776661734
0.0208890905118498
0.0206679169362643
0.0206566549855718
0.0207435719524734
0.020717137736134
0.0208574979799689
0.0211984137668988
0.0210772911369003
0.0207816081160352
0.0206600141293277
0.0208729262462955
0.0214650107130676
0.0217249539051545
0.0217218945960352
0.0213869333893846
0.0209316428801209
0.0211502610141293
0.0212690506754376
0.0211446408695602
0.0215877177890373
0.0216967257650023
0.0213212709840835
0.0212689074753067
0.0213991239894481
0.0214456205460619
0.0215302385394651
0.0216346232565432
0.0218796263243761
0.0220057327037515
0.0217091661544711
0.0215277789268291
0.0219211843796267
0.0221195639448038
0.0220439028711705
0.0223588208724334
0.0228159585052223
0.022582805384305
0.0224013306757886
0.0227922761303591
0.0230987947959392
0.0228947887966342
0.0224589157355784
0.0220369675747436
0.0214243151145994
0.0210598250125372
0.0210870119050796
0.0210479750282937
0.0210355314918913
0.0206783181220746
0.0200563115264095
0.020037482451005
0.0201598360712096
0.0200774466331817
0.0201735482579736
0.0203204840351995
0.0200319847791524
0.0195964183016819
0.0196649847853592
0.0197066628872175
0.0194457392571928
0.0194821781324978
0.0197487485741995
0.0198208971664745
0.0197388389237217
0.0194784866408505
0.0192657275269624
0.0193165241423583
0.019336124324352
0.019077746320183
0.0187953281262652
0.0191454030371976
0.0194727708062355
0.0195674693942358
0.0196282949934937
0.0196915360500764
0.0195963625352494
0.0194209204126869
0.0194037398737518
0.0191984019777152
0.0188591370767226
0.0188092195649965
0.0188541041700186
0.0187442651423891
0.0184555858072745
0.0180622819257123
0.0178989521208159
0.0178447051764255
0.0175159959086673
0.0173523915909061
0.0175514504690235
0.0176816700784343
0.0176166810760724
0.0174741606337323
0.0172656260146162
0.0172795385575846
0.0172252113574822
0.0171025629053973
0.0171279552180553
0.0168966261764016
0.0166727422178408
0.016801230969132
0.0169475640379034
0.0168140148679116
0.0165873392674266
0.0167527699928714
0.0170510439695321
0.0170237273545713
0.0168258081524767
0.0166381891565391
0.0166637169781047
0.0165232424694271
0.0165052250633193
0.0165751003384242
0.0164802509548414
0.0167168479525035
0.0169298557416013
0.0169941514841895
0.0169530376053408
0.0166012324988925
0.0161829474561303
0.0160218041596488
0.0161323174660639
0.0160221363830295
0.0158874810781476
0.0160825160191516
0.0161565045970171
0.0160415486762587
0.016097293182531
0.0160263067883331
0.0161844596231219
0.0163923306832643
0.0162363813593034
0.0160027523978384
0.0158144043253308
0.0155431847194181
0.0155500938725155
0.0155508371116898
0.0157133731073767
0.0155886804292937
0.0155543458127759
0.0156765439005267
0.0156281972567751
0.0154126371336551
0.0153673086844201
0.0154958851869018
0.0155889140003478
0.0155571170004025
0.0155376973935966
0.0154154170025463
0.0155557144365167
0.015631918443008
0.0153696773482793
0.0153795713367469
0.0155343790147923
0.0153876038258638
0.0151423013629252
0.0151466491435589
0.0151865410060178
0.0150961675310422
0.0149918538856407
0.0151846260247227
0.0153336829033376
0.0151173929213553
0.0148487300118008
0.0148469950972308
0.0150726044457106
0.015000592047248
0.0149795136223022
0.0149891523831007
0.0148459409746344
0.0149945403203372
0.0151244217451361
0.0149982804918946
0.0148611309624027
0.0146369698111721
0.0146419835801825
0.014681047286458
0.0145588174198982
0.0147491462119361
0.0151239540339102
0.0149826120000716
0.014808178251761
0.0148376029506418
0.0147337978585434
0.0147471057887684
0.0150048993925122
0.0149391064085741
0.0146855600183779
0.0143791226745776
0.0145195815225958
0.0146664476773202
0.0145975791890562
0.014506191303227
0.0144188369121155
0.014549155011275
0.0146087533709779
0.0146761017190114
0.0145971455473544
0.0143747831993427
0.0145009373334003
0.0143342427475611
0.014168962317896
0.013682833211737
0.0137055677071928
0.0143193725890063
0.0142660998172181
0.0142103739391177
0.0140277248310857
0.0136091384070029
0.0135131607297982
0.0135011455037464
0.0135920557182519
0.0134155105292281
0.013259880562304
0.0130962306642508
0.0128700796077422
0.012986423245044
0.0132893988782872
0.0132827081886869
0.0134802808385211
0.0130731673498766
0.0127437669866114
0.0130453238094878
0.0129539930515324
0.0125461783883109
0.0127610860927323
0.0133361475556587
0.0133585946517476
0.0127927948672637
0.0124673321650185
0.0123951123599736
0.0125602166506425
0.0127577006291855
0.0126073398732042
0.0128167588327484
0.012880482195431
0.0122031518007341
0.0120379297917959
0.0122640741895247
0.0125332693351848
0.0127307471741179
0.0127268841100824
0.0128478315566968
0.0127969084490767
0.0124208224243195
0.0123593002154025
0.0123032248840807
0.012346590066325
0.0127688244906426
0.0132107678892088
0.0125248197185135
0.01163929752064
0.0119965435386677
0.0123548941051984
0.0126549548941238
0.0126060848773021
0.0121352994912815
0.0121196921976878
0.0123645727678703
0.0124294430568901
0.0121431913194881
0.0120149804067946
0.0119775046489591
0.0122308556247896
0.0123433829748063
0.0122428330403841
0.0121945405201447
0.0121248865810151
0.0118864313772955
0.0117979159717844
0.0119373331196286
0.0122295057147602
0.0123225999138899
0.0119710818201627
0.0116933776525823
0.0113970091013432
0.0116240419843545
0.0119223895340122
0.0117847342237254
0.0119835671613782
0.0117410338041554
0.0112918217792738
0.0116478478245383
0.0119793887295416
0.0122501785153023
0.0122924279665449
0.0121016152490573
0.0121707649368088
0.0125647667727973
0.0124153644828914
0.0123136671457164
0.0121738309394998
0.0118903367459717
0.0121516222351033
0.012337743681529
0.0117091108058071
0.0112249369014021
0.0115415107840084
0.0115618502286289
0.0117772131764326
0.0116141862108074
0.0116600773635692
0.0120416669145533
0.0121786511946023
0.0117349862334349
0.0115480906869195
0.011928339479132
0.0123044278837339
0.0116631172288505
0.0114635864474637
0.0116212650790819
0.0113650175325826
0.0111377707712459
0.0112256168882854
0.0113057268521969
0.0114860072603962
0.0115128690533054
0.0113091952829056
0.0113532894780155
0.011801396709271
0.011816707595206
0.0114751127398281
0.0113675829557454
0.01127355204916
0.011436962189333
0.011542427929032
0.0116090194833075
0.0113586348725681
0.0114571172491979
0.0122151928848664
0.0121002796998953
0.0115297629902929
0.0112824682054578
0.0114569335423782
0.0112228887277054
0.0111383773585375
0.010530384311573
0.0103612561116833
0.0109028849591211
0.0111293910737935
0.0111112832064378
0.0109784150946391
0.0113982328260763
0.0114729140517324
0.0115743812600131
0.0118773432197573
0.0120824489291475
0.0120055286294621
0.0115457176884282
0.0115860896556328
0.0119508187058964
0.012001487905087
0.0118667057858706
0.0116989991678277
0.0118767957475886
0.0117456540237964
0.0118470839366171
0.0127215888390715
0.0132324148328132
0.0130855627781406
0.0128245591134187
0.012760610601637
0.012629700521518
0.0123926964199698
0.012029965753383
0.0117157141768012
0.0117468994702474
0.0120213274862315
0.011869058048565
0.0119420350254392
0.0122779871278244
0.0124085563744197
0.0122148454991538
0.0119907859524881
0.0120132834716254
0.0120782071527912
0.0119406051816264
0.0117824522636908
0.0114518164430303
0.011403411227244
0.0117622712646984
0.0115760747230535
0.0107694943268667
0.0109573669450124
0.0106921117696458
0.0107311540546415
0.0113810618850818
0.0114536007743159
0.0105297271679063
0.0099939042430456
0.00966590210159985
0.00998417308864761
0.00995757358352713
0.00962555822497949
0.00902320773662921
0.00909705047372102
0.00886100419880336
0.00897897894865514
0.0102538850422544
0.0106610952792195
0.00932530150789345
0.00824957906071627
0.00811290710247722
0.00794965704630395
0.00820280088879349
0.00794031835533807
0.00824620587737753
0.00902394665877459
0.00870555271583622
0.00845412292873664
0.0082574551576665
0.00744608335423414
0.00770310222524127
0.00783254265679009
0.00737872819860145
0.00724384359141849
0.00718955825937608
0.00692218512073281
0.00734494521913251
0.00719825223696753
0.00664757057068926
0.00658869114553051
0.00683888070919996
0.00796562675426444
0.00785680112021657
0.00710954921873266
0.00639221786227793
0.00520830674892162
0.00492239749166787
0.0060268856145652
0.00630160385550291
0.00693603257079614
0.00819552816957441
0.00742380453737588
0.00574305441704568
0.00521984388649367
0.0054968780013021
0.00623629254059017
0.00621830530881877
0.00562168184583025
0.00432855563216287
0.00282699330606253
0.00297268059659711
0.00425362094869395
0.00406392647203157
0.00275299255623992
0.000717496849555855
-0.00089566792643675
-0.000873095832255381
0.00110089273467824
0.00404763856864466
0.00457460600323448
0.00361342581710513
0.00390294796111112
0.00568351368199968
0.00714589256092708
0.00649291764929041
0.00514712294266624
0.00571041601814544
0.00661256950980886
0.00650784020814428
0.00576315210899847
0.00561048734986663
0.00701877159526199
0.00765478239975058
0.00746872639716345
0.007354841979105
0.00760258011861937
0.0081499470933475
0.00838138767587006
0.00845244812391895
0.00912777196063058
0.00917849621797728
0.00917711865750819
0.00928936761193376
0.00866120384715193
0.00859049047096183
0.00843939939768585
0.00730031646192996
0.00712352066352295
0.00701209273615184
0.00698553535008365
0.00761778422117271
0.00837597289208636
0.00765872432212937
0.00683180708815525
0.00724060602383914
0.00807024020727207
0.00820939962258949
0.00796273854118176
0.00810260228414121
0.00815884822618345
0.00760302326837804
0.00729131697339452
0.0062507940836636
0.005289071975673
0.00561119084963958
0.0065821475842704
0.00700837577649898
0.00612239233697765
0.00511323255041947
0.00516993783753711
0.00519472082342026
0.00514166161223371
0.00593984556110267
0.00680638178815494
0.0058625224749472
0.00466711118084334
0.00481260551062679
0.0055459617303625
0.00496889094114488
0.00310657010838746
0.000900231960316388
0.00046667642620834
0.00175804848613013
0.00264226686307638
0.0031905870299395
0.00301852387760989
0.00150849268898978
0.00173540852387113
0.00298016486872687
0.00305154350820276
0.00335836386057408
0.00400600059754206
0.00405799973081754
0.00317797955020736
0.00375186155101643
0.00505009335397361
0.00572580189003844
0.00489740123905656
0.00391348410391777
0.00373807885077157
0.00399103789678727
0.004886457970934
0.00464606046272725
0.00474156120850281
0.00569230189928199
0.00439782642754294
0.00362822363020427
0.00400582491686924
0.00404703712522022
0.00389266418724502
0.00391607760929801
0.00360025977607522
0.00264921407019095
0.00347925175525722
0.00403571644636765
0.00386345197147607
0.00320997114544325
0.0027622111622468
0.00338057058949532
0.00362239634981913
0.00441886500519708
0.0054639265879364
0.00528598129639978
0.00476116202093785
0.0046943386950388
0.00485009478853911
0.00516572408150005
0.00629378880893113
0.00708503455679859
0.00678034305265726
0.00664736605433893
0.00691448023477438
0.00678730410577123
0.00661238548751023
0.0064032361062552
0.00626666805014521
0.00672156880799146
0.00726196828671003
0.00753154377210988
0.00795056348886985
0.00839151637296608
0.00846087470403647
0.00871349307744614
0.00925306831108468
0.00939510246743192
0.00916714481164932
0.0086197719136097
0.00822891251804911
0.00805908075943267
0.0079505658835596
0.00840516781386267
0.00916486998903636
0.00942582628040543
0.00946918192884068
0.00914936383808163
0.00895393757339856
0.00922186589020684
0.00956193523123407
0.00956647912465385
0.00916816078556713
0.00896434332996771
0.0092812419173419
0.00961695979563861
0.00981595877154011
0.00962039925980694
0.00904106952498363
0.00918040470638724
0.00953128221106606
0.00934480006917232
0.00913820130212842
0.00917832444498263
0.00908771390864668
0.00900451359898615
0.00922991137188405
0.00937491650944773
0.00940892434583171
0.00915394139122637
0.00917111421073558
0.00940699414273542
0.00908920974704962
0.00898692685339286
0.0092155950199395
0.00944450009183588
0.00951394831715186
0.00930284770453643
0.00935782003291911
0.0092261468378674
0.0090167242512937
0.00918595777803023
0.0091789135647624
0.00911333044791183
0.00917838469687031
0.00930628302716684
0.00945339258224139
0.00936222919028309
0.00931648896101776
0.00938891172712882
0.00937655261249521
0.00919767820511095
0.00932418216553286
0.00961210902411496
0.00966163448702723
0.00979216268430873
0.00982688707023737
0.00990393249567023
0.00993016408436783
0.00973460497028883
0.00982901644278363
0.0100368925671017
0.0101429610137992
0.0101258842353138
0.0098163156033393
0.00966807897150495
0.00991273883313461
0.0102009764150321
0.0103572067362372
0.0105321630114183
0.0106888455511314
0.0105870252967851
0.0104514003236208
0.0105758874078134
0.0108746899885559
0.0109873690331193
0.0106929245846864
0.010654296352073
0.0108018590455643
0.0110196901327187
0.0113638671301501
0.011505974230174
0.0114245272823697
0.0116168648297627
0.0118949817486909
0.0121287973048202
0.0124463897873109
0.0127576918361624
0.0129645331338721
0.013503907913706
0.0139685686086041
0.0140779328799496
0.014141021321608
0.0143940244510572
0.0149385142127096
0.0152095771622533
0.0149245117534384
0.0151388740516544
0.0154194080343994
0.0156782042432802
0.0161215272008364
0.0164981076153271
0.0167196705389832
0.0170738689375613
0.0175256056836469
0.0178309942237788
0.0183080538592716
0.0192216483519457
0.0202195604522239
0.0212433661659581
0.0223683701007686
0.0236835138993117
0.025130048007782
0.026836102771799
0.0288139417314659
0.0308365518134298
0.0337041313270891
0.0369336846025799
0.040307909191751
0.044461207221113
0.0490018550625988
0.0535129689738343
0.0589799657247823
0.0645530492075961
0.0694262864194266
0.074626905221099
0.0794721574380882
0.0847772264815624
0.0893360190030324
0.093423992996795
0.0977781804319691
0.101379664619559
0.104353422747556
0.107821380420975
0.111233593663236
0.11359887070186
0.115745750576542
0.118397730757677
0.122048091856906
0.125521528077871
0.12464310727543
0.125356054243428
0.127548370415523
0.127149325293411
0.125333648155186
0.12412853221615
0.12304349165793
0.122720138162682
0.122442938969976
0.11939762184351
0.11674102524626
0.116166546595012
0.116082443170049
0.115229042837399
0.11435667109709
0.113127377511677
0.110185683357767
0.108234618118308
0.107017916434503
0.103214407160146
0.098730804175284
0.0956829755651276
0.093051982636616
0.0895705851938796
0.0853399084239146
0.0812966510821392
0.0776171114535824
0.0738915350351376
0.0702968082905948
0.0670661232812131
0.0639497992544477
0.0611462791749891
0.058967229606746
0.056756793585395
0.0549191844530897
0.0536700136117417
0.0522750736110182
0.0506592503417027
0.0496166233686863
0.0493382616595459
0.0486796395820562
0.0462823392185574
0.0451838800508472
0.045217216084439
0.0443909570200476
0.043367935993105
0.042932362734889
0.0426481989198634
0.0432665573387479
0.0439195462591794
0.0419081253131049
0.040792179965372
0.0409455758462203
0.0408004938675164
0.0406641375940899
0.0405496170551594
0.0406825261806409
0.040379493319028
0.0401808238126617
0.0404209245876558
0.0389469626864015
0.037467541532228
0.0380762539179798
0.0383541514466462
0.0372282041039986
0.0368247081508711
0.0368866794427928
0.0364283113720907
0.0358151483927795
0.0354390268336967
0.0342893605791967
0.0336780260019175
0.033432976496405
0.0325371261054942
0.0322371991996362
0.0322298315654639
0.0323475238971996
0.0323268715678259
0.0303499417573176
0.0288612628530175
0.0289068643340678
0.0288532447554657
0.0286284614301128
0.0279392732534376
0.0270954374528662
0.027044714002378
0.0271533170481039
0.0263922619872979
0.0256667562059802
0.025447239137024
0.0255472043589431
0.0256726958820522
0.025654666333986
0.0258521949510592
0.0261133769550746
0.0265922473391591
0.0266331113049112
0.0260602287996844
0.0263702958601619
0.0270126408205196
0.0271910201968583
0.0269593496474051
0.0272048423005631
0.0278525222858665
0.0278548673249095
0.0269424185882441
0.0269197870739627
0.0272977629683696
0.0277854952534644
0.0278553711078194
0.0275849062168842
0.0276752780577899
0.0277413155449355
0.0278283131239703
0.0282190848256845
0.0282225347166452
0.0279094699368985
0.0279668137740152
0.0283022697122826
0.0284773582508738
0.0283742148402531
0.0286957259075594
0.0290346937322252
0.0291365826337365
0.029363895267899
0.0290487032252202
0.0291148218549597
0.0295803277516789
0.0298932479625432
0.0298366913451838
0.0297475842266807
0.030020319453589
0.0301797168207205
0.0300731318104615
0.0303991555240791
0.0306772984452914
0.0306473966242766
0.0307792283397989
0.0306018468861858
0.030413011739228
0.0307440336261048
0.0312241457978456
0.0312952527962328
0.0312978816244998
0.0316347766928184
0.0319413639031412
0.0320934694175668
0.0324576562660828
0.0331116040003718
0.0332938008642815
0.0332739354831461
0.0335484026310816
0.0337854300245717
0.0339349861483183
0.0341795883116975
0.0340004318452009
0.0336224059409033
0.0335745826100097
0.033621269389411
0.0335455922042585
0.0334861255880558
0.0336752349935324
0.0339248640680808
0.0340632328422083
0.0344392998030517
0.0351964266585554
0.0363185737734688
0.0376839936195699
0.0394513904753975
0.0420525160457996
0.0456683386743755
0.0505127162411265
0.0566665106773826
0.0645171232539513
0.0743941159418782
0.0864806600725976
0.0999455950283629
0.111981395686482
0.118345798810262
0.115183679424191
0.103413346248877
0.0882805136808003
0.0741570841863403
0.0631131825273857
0.0547215369728058
0.0481802000807919
0.0430198352147172
0.0390765407128394
0.0361984379890165
0.0341214006853755
0.032659413168144
0.0316308789397568
0.0306464490960141
0.029752266484069
0.0290522728683132
0.0285183784842447
0.0281598055783169
0.027912545200612
0.0277065317538938
0.0275384096906709
0.027268016915515
0.027089182489573
0.0270331493975797
0.0269196265574177
0.0268765064822049
0.0269723441247465
0.0269802687201135
0.0268783861568743
0.0269208145213629
0.0269824110392981
0.0269521287283189
0.0269751383051528
0.0270655434091174
0.0270009112905196
0.0270032346328115
0.0270521968650115
0.0270993572466045
0.0271269258318777
0.027186809156208
0.0273910258874743
0.0275312401578632
0.0275952570533016
0.0276752872778442
0.0278438844100965
0.0278639503991365
0.0277490057051376
0.0276968601847383
0.0277276322211667
0.0278579290751082
0.0279322175531815
0.0279737917390697
0.0281731457798801
0.0284681058068903
0.0287691287353546
0.0291063842729929
0.0294596508082477
0.0298247214495745
0.0302134565134783
0.0307292663620125
0.0313588457911894
0.0320612143539751
0.0326971930727986
0.0334070831144805
0.0340582156389436
0.0346276856174817
0.0352354107407102
0.0359854756179221
0.0369270061272463
0.0376824140061233
0.0384039259827203
0.0392677280509802
0.0402555910121987
0.0413417710930359
0.042416048113754
0.0435783173000495
0.0448582123354123
0.0462952225033403
0.0477599160742224
0.0492798816594914
0.0509921394770568
0.0527718972120259
0.0544655435473638
0.05575359733083
0.0560389996064554
0.0555804673970722
0.0551745070047323
0.0554852664037739
0.0564877899017856
0.0576436833067916
0.0588818705357259
0.0601803419146076
0.0614742450482917
0.0625877550020125
0.0637874297673278
0.0651025163480815
0.0663733094417326
0.0676590111171192
0.0689850636890411
0.0704472313767524
0.072010789562702
0.0736095900843148
0.0749915551442971
0.0764096708529028
0.0780229231543366
0.0797127610975138
0.0813839857169344
0.083014607964184
0.0846426381629448
0.0862132131266929
0.0877099942468673
0.0891304604667364
0.0905581512588577
0.0919592179406995
0.0933481206164102
0.0947277570975473
0.096186859756614
0.0975614994447861
0.0988006952415439
0.10005802804248
0.101419838022667
0.102641657992849
0.103598124015212
0.104703515361613
0.106011967621527
0.106979766684844
0.107852770108276
0.10891541501931
0.10996859514426
0.110830991399946
0.111871041874955
0.11328180038502
0.114805408662604
0.116423217986922
0.118390533923868
0.120890114228358
0.123559693206484
0.126412666140509
0.129507972201641
0.132538713272434
0.135612958396117
0.138709164798009
0.141966807732492
0.145489396078573
0.149085327452976
0.152703264509218
0.15632715138226
0.160014081110624
0.163844426317778
0.167767549355894
0.171695038767206
0.175239564307248
0.178565721375764
0.181677209619688
0.184524147967473
0.187051655628024
0.189140073330425
0.190775921956983
0.192149141207613
0.193547804264273
0.194955785583069
0.196315464681027
0.197877661609838
0.199262855140112
0.200643059984769
0.202135969869583
0.203690217262563
0.205245098931795
0.206611948847121
0.20749729491512
0.208109434016778
0.208613978909068
0.208916397596238
0.208882072622751
0.208727191091835
0.20843748975248
0.207944526594209
0.207576502266671
0.207091490553437
0.20612574611446
0.20510700892749
0.203984316684351
0.202358993887643
0.200345578567528
0.198236568810895
0.196043812896567
0.193692306881995
0.191123145134657
0.188534993076944
0.185872379746931
0.183238816980985
0.180481151058663
0.177585404025734
0.174775760894753
0.172079395944386
0.169418702454926
0.166827495091611
0.164333161523655
0.162057550135939
0.159980562554913
0.158140034549251
0.156517793686644
0.155001653793979
0.153533333457016
0.152247735384618
0.15106272357865
0.149976270304982
0.148942537600832
0.148030960846652
0.14689472067265
0.14586524047679
0.145234910089834
0.144661151511301
0.144422195031063
0.144453671065698
0.144402414912649
0.144529550118744
0.14469462474877
0.1448589444014
0.144248473081084
0.142351450270502
0.139777456890793
0.137425314804445
0.134957921684242
0.132093518700388
0.129025390187175
0.126198806993983
0.123847121938951
0.121647870748319
0.119530231604188
0.117491631139476
0.115932503241225
0.114460070855975
0.112759996540131
0.111643986494846
0.110821756085409
0.109301079201137
0.107924602584417
0.106876684191927
0.10547190445196
0.103674638016903
0.101836043650858
0.100363397934086
0.0987393996769121
0.0964834179154694
0.0944551835748946
0.092664832408869
0.0906149614410521
0.0888838294986532
0.0871594054391566
0.0849639149582136
0.0831459773183578
0.0821935275667031
0.0813085816727058
0.0801142841986641
0.0794841929710878
0.0790787134478878
0.0785527092110628
0.0784376504267397
0.0785704582734182
0.0785307180044208
0.0782577164119189
0.078178508995007
0.0782204233872251
0.0780572682967299
0.0776123881944606
0.0772686559937005
0.0770581878565594
0.0770476998524716
0.0769522294348338
0.0765189308405128
0.0771842487446659
0.079005842302046
0.0818622499170898
0.0864405007663631
0.0919481008691506
0.0980628696362695
0.105085122595814
0.111532987297811
0.116492993171592
0.119774093421176
0.12103317237914
0.121501445225217
0.122055164118303
0.123164851607081
0.124366240168072
0.125837241934308
0.128932892961149
0.132282238440011
0.134250171982012
0.13538463083527
0.135623908079876
0.134798672937711
0.133351343933024
0.131505329404252
0.130372401096991
0.129641461878184
0.128850803782998
0.127826219992563
0.126601532288748
0.125620900799702
0.124598145903841
0.123312370449722
0.121914034337306
0.120719094163512
0.120026007618564
0.119830884068716
0.11955525431796
0.118662396388867
0.117332264714522
0.115916827397078
0.114500262090313
0.113221813455688
0.1117264086484
0.11099282569653
0.111119715753274
0.109884603468488
0.108559129725241
0.107861290073232
0.106821332812913
0.106728930367682
0.10667055221698
0.105278936775721
0.104215396298728
0.103651190768481
0.10339260832973
0.1035862784823
0.103738627725961
0.103665239238564
0.103851554784124
0.104643561986868
0.105535075427671
0.108013546375138
0.112019852651287
0.115404641192641
0.117474570443457
0.117137158716714
0.115850842291836
0.114657291605833
0.11348945867885
0.111494587624372
0.110475747967128
0.111935549610462
0.111292987098783
0.109451965082249
0.10757082659036
0.106996833317434
0.108340802516817
0.107327789393605
0.105278171737144
0.105628967227154
0.105967087401541
0.106003046392007
0.107311795112701
0.108287887776535
0.108650849870158
0.110649058542304
0.111877888760603
0.112542891066068
