1798
3999.43349933624
650.420452594757
1
2
4
0.0313480164444097
0.0313605679254923
0.0319010996549941
0.0316588141451103
0.031301241994843
0.0316598798230675
0.0315011940739323
0.0314864398141715
0.0320146612046325
0.0318478242617638
0.0313124504621456
0.0310518432631172
0.0308225124673456
0.0314290307473851
0.0319568731554602
0.031682148691552
0.0314002714242566
0.0309196135350335
0.0310177297770439
0.030975205517266
0.0309229666557349
0.0313817715843493
0.0315392648926083
0.031368154141415
0.0314004260454092
0.031460189619878
0.0319490381274152
0.0320165188278384
0.0318321633470603
0.0318065804496681
0.0312615288283628
0.0311340409426452
0.0311624122570325
0.0307522095167823
0.0312017452995069
0.0319510213019934
0.0321930113995067
0.0320078459719451
0.0316612917913102
0.0314747825116666
0.0314123213797166
0.0315016206021637
0.0319109807260669
0.0324574587194122
0.0318309513178321
0.0311578915652254
0.0311743654885414
0.030605998118939
0.0298595772814155
0.0306328044257085
0.0326688653457211
0.0340924314953015
0.0339203180344256
0.0324775647402505
0.0312047140801229
0.0305297410443374
0.0311127806781662
0.0319633907363472
0.0309891759643255
0.0304753965202201
0.0312869044915863
0.0319969226989667
0.0323879918037534
0.0328612825654581
0.0319166980081741
0.0306627377062448
0.0309050119239271
0.0319277762613907
0.0329059094827233
0.0334172899968384
0.0328430994808451
0.0317529814713855
0.0320599192432498
0.0316288179215305
0.0301558943333058
0.0300097054043779
0.0320312492332401
0.0345210319015802
0.0354445191934438
0.0329591776289786
0.0299255734380063
0.0289335884948939
0.0294804262706172
0.0300148668194151
0.0307431538676066
0.0325967453289347
0.0341597664600747
0.033641928728345
0.0323905466055518
0.0315669779291843
0.0302944923676576
0.0295419887029825
0.0294192974833731
0.0303033436356138
0.0322828068610442
0.0330324736611294
0.032529909032662
0.032932362752155
0.0327947823997826
0.0309352403680937
0.0292840311531884
0.0297565257918827
0.031456403808354
0.0316591661221854
0.0313814688368407
0.0324476923525964
0.0334626202219706
0.0329337531068814
0.0317538744922563
0.0307922362236333
0.0297888607383719
0.0290459879723815
0.0290684611438404
0.0293727019311876
0.0303848856311706
0.030973730563696
0.0307340865134138
0.0311311929898053
0.0318656732457847
0.0315046782011119
0.0304190536630612
0.0303544822513869
0.0310572952546556
0.0313882123678575
0.031708033728394
0.0318679366725849
0.03078214982145
0.0307070377419297
0.0317208161282631
0.0312635360962272
0.0313083682329573
0.0327687772723063
0.034457569223384
0.0347160208963676
0.0339852185147953
0.033640744309261
0.0337340538565676
0.0324217726123808
0.0304143268742583
0.0302719235089198
0.0317307048473346
0.0335894211326943
0.0327692982222696
0.0312740802496127
0.0301376141470164
0.029930985859847
0.0301430022819995
0.0295821237994736
0.0295561492703606
0.0304587002677001
0.0304938513289446
0.0302369883229476
0.0303861388278895
0.0320969593041219
0.0337067402846452
0.0324950610523376
0.0303800816945762
0.0300671074704281
0.0313917043316293
0.0322039249479964
0.0315236310900174
0.0308349508691949
0.0310318731321363
0.0312213688571718
0.0318504803456921
0.0340112438903451
0.0353385905895186
0.0338825383604015
0.0315512615966757
0.0311751827271589
0.0311626636370784
0.0315435286477276
0.0329414345356522
0.034700296998822
0.0346962661882571
0.0338831295596547
0.0336554733372769
0.0321578524642223
0.0309437972123571
0.0310335421576845
0.0311401302526635
0.0310292964101796
0.0313966680686743
0.0324644998261633
0.0335838795710737
0.033907474706505
0.0347063610364257
0.0369173311781715
0.0380779471081648
0.0351757981369185
0.0320685353321301
0.0319518068233944
0.0326144417337971
0.032831595568013
0.0329119716493705
0.0330939708844917
0.0336979751635769
0.0348611012307809
0.0369118518054788
0.0368225307469591
0.0344390447783404
0.0334368912759332
0.0345866685547874
0.036206391078119
0.0358696463881829
0.0350476382157694
0.0348461151754614
0.0350041604604508
0.0348028419763013
0.0344115635780922
0.0336378086378222
0.032837159925048
0.0326809078352677
0.0335735796747733
0.0339553128030333
0.0341464754019952
0.0349725566135844
0.0348871452112733
0.0338334613383591
0.0338704615491996
0.0352174048085305
0.0354703660510036
0.033782960705892
0.0319271802050965
0.0312044838499161
0.0318467544687768
0.0319935513628642
0.0320678682454413
0.0326795920767537
0.0330317395880137
0.0334224629602743
0.0345603025813448
0.0345681417880878
0.0339627942371872
0.0342219441326632
0.0343978766951141
0.0335045764290676
0.0329846029710063
0.0324821362442012
0.0319563347090032
0.032897311942063
0.03365684170956
0.0329439673170051
0.0329329938323964
0.0328681203046313
0.0323525402251165
0.0330402115681769
0.0333380365940987
0.0325166573667664
0.0327434487848343
0.0331253894875933
0.0321702980760325
0.0314982842145819
0.0328769148776317
0.0335221212164733
0.0326898672204312
0.0320334234523493
0.0318427320003139
0.0316999053311805
0.0325573573850693
0.0332357842654149
0.0330878201998039
0.0327448793835794
0.0320871642388182
0.0321127515157708
0.0326694802366239
0.0323290871972977
0.0328569623161408
0.0330537213737285
0.0315879029454368
0.0313352698262367
0.0319904100158955
0.0308595921803321
0.0299708193214771
0.0307267527630896
0.03151558895822
0.0319080681316983
0.032665457854215
0.032911888426479
0.0323475155969608
0.0317604955105747
0.0322170090373876
0.032664794736478
0.0324459673102171
0.0319476189820983
0.0319383433287623
0.0319417226572618
0.0317129712294606
0.0316317721392807
0.0324938508154667
0.0324967693729896
0.0324309031556527
0.0327736646114294
0.0328289927260074
0.0331895408074189
0.0338780042811025
0.0335440836640478
0.0322553923124438
0.0320108926373374
0.0326676186901756
0.0328583379240644
0.0322667989116374
0.0316864146842405
0.0319373180719694
0.0321833007549247
0.0319676575216434
0.0319723350531844
0.0322545464720886
0.0326005031724713
0.0327129880832006
0.0323888693606525
0.0324141960048068
0.0327927837051567
0.033038710014292
0.0327578120304672
0.0330268104182002
0.0334668595108491
0.0330123840135956
0.0322724963920707
0.0323154238309055
0.0323929509027283
0.0328593837185446
0.0325805670300807
0.0328487671366919
0.0337019403078272
0.0343355003620655
0.033399645421421
0.0328022927997976
0.0333033645510804
0.033109688277275
0.0326196909980251
0.0327385022781728
0.0323285362809013
0.0326317565049507
0.032750683611969
0.0321740630617256
0.0321547414689015
0.032191126758769
0.0326964515042262
0.0337756741313224
0.0333443339083668
0.0327517659305311
0.0331806887114731
0.0337180817559935
0.0333563284182473
0.0333131980406618
0.0334494264542452
0.0334366959487872
0.0334914058595697
0.0325903974666549
0.0323324213490857
0.0329700555793503
0.0333859921340938
0.0331638037295001
0.0329837607057013
0.0328987180922543
0.0319294302984546
0.0318635391994448
0.0328266342752734
0.033499125582754
0.0332632338830691
0.0324914797535799
0.0323048771297162
0.0324869916337423
0.0326382640627049
0.0328308344596191
0.0326566649370472
0.0327014282716684
0.0334436845575511
0.0336428560011955
0.0331730062070278
0.0335657171551611
0.0335028760002297
0.0332277430403799
0.0334604510067844
0.0334305128006886
0.0328503731058949
0.0325578102648174
0.0323596391684443
0.0325637755256189
0.0332444993996716
0.0336995394505919
0.0334805576633319
0.0336018081930616
0.0337182364015953
0.0339013749563018
0.0331794251857307
0.0325954403755752
0.0330109538932072
0.033068386312724
0.0329875838472186
0.033223489453862
0.0326612032415681
0.0322601601748208
0.0326282625703624
0.0332696231086187
0.0335373875399368
0.0331570675108161
0.0326915117209739
0.0323947629642146
0.03222383007348
0.0325874404315247
0.0329090722662737
0.0327561989884968
0.0326628585563778
0.0329400269233997
0.0330613678638564
0.0333042623764414
0.0327689074352313
0.032424473273571
0.0325247271418349
0.0324543101124269
0.0323164803057134
0.0322935105295414
0.0319871307375111
0.0326159522457992
0.0332357992034367
0.0333281289568372
0.0329403144594501
0.0325355454214392
0.0315770566624208
0.0314099312918525
0.0320222857912756
0.0323360760992694
0.0317741854239373
0.0312581943206868
0.0316697618375747
0.0318137838503652
0.0318827513620714
0.0319814411294057
0.0319662081654208
0.0321965043282713
0.0325526040339826
0.032342593709975
0.0322704702004351
0.0317105001573422
0.0310345115459682
0.0313014464798928
0.0318040213610375
0.031714735916413
0.0316390647252875
0.0316828760872361
0.0314884190889707
0.0315531196297038
0.0313813528895942
0.0312338847241524
0.0315677701627453
0.0320050885307034
0.0318782568777116
0.0319966956041607
0.0320446703957039
0.0318599816814491
0.0315328733653485
0.0318281177256211
0.0317992471193139
0.0317997482768804
0.0313538215664401
0.0306423561667918
0.0307512758591021
0.0308104239581787
0.0306609987472252
0.0310670684543152
0.0312542225630113
0.0309480115363636
0.0306030996619996
0.0308432314635384
0.0308285700322701
0.0309619252744183
0.0310657650354467
0.030962771034435
0.0304570671672357
0.0299753006859801
0.0299607206861003
0.0302916050128222
0.0308171742386942
0.030686133198632
0.0303056674366334
0.0312228151717372
0.0325468815057526
0.0330965208163194
0.0339060191862434
0.0343511169052119
0.0337041350741228
0.033284928518748
0.0335373647836431
0.0335364963820205
0.0332607138361556
0.0338193427759571
0.0348864010674456
0.0365961497197003
0.0390472286614691
0.041254843408814
0.0428998127125436
0.0433036235435526
0.042727172655004
0.0417797115445837
0.0406484847853903
0.0403791205092875
0.0401139534669006
0.0396893278237683
0.04009743713026
0.042072378087073
0.0445553975376523
0.0472524174040979
0.0494905257880509
0.0502578688341567
0.0499597532968883
0.0489238486082841
0.0470315937107865
0.0451871813797632
0.0433246982511811
0.042071944101239
0.0411305870452339
0.0400764923668062
0.0396574845967141
0.0400524644807641
0.0409408384125619
0.0419674063360132
0.0442723755791421
0.048361614895926
0.0534455969753939
0.059687416212561
0.0656544809715151
0.0694865044407888
0.070393147347941
0.0682731039378289
0.0642827600005088
0.0595174060880009
0.0548069055931551
0.0509814363122212
0.0480437870213542
0.0457829849861896
0.0445947133634642
0.0442053827899248
0.0442470469555912
0.0445425640632776
0.0441945284883104
0.0437342066490952
0.0431789095078125
0.0420405060069647
0.0406063295323153
0.0389876783738777
0.0376416536640105
0.0370915754526133
0.0368378654460247
0.0365822164944458
0.0364469629265486
0.0361673786911629
0.0359757260913353
0.0360299052059284
0.0358018620244073
0.0357776253658587
0.0358070979467879
0.0360326167744626
0.0365597628603333
0.0370719871988449
0.0369778298917549
0.0372137657797981
0.0377280262366473
0.0382498975931409
0.0389331013699972
0.0397698791722331
0.0405580736472041
0.0416038209098765
0.0426334672665904
0.0437119265165656
0.0450466521345013
0.0467011615203682
0.0486939453612286
0.0514020008076763
0.0544977226552448
0.0576325704595401
0.0612630740477648
0.0648397988518184
0.0679580056967389
0.0714144676785134
0.0751134061628266
0.0786868720290461
0.0813471204950841
0.0833912070080189
0.0845053957845097
0.0844122706732736
0.083579918010873
0.0821160212350223
0.0805617501812081
0.078578171850877
0.0769158462362654
0.0754322887063777
0.0732687113629074
0.0711246792894274
0.0686854850996131
0.0658637185845079
0.0632913571531608
0.0612256086583707
0.0598100002683774
0.0588030707611293
0.0577502896008139
0.0564768145474784
0.0551524325698816
0.05389646170627
0.0531287058310308
0.0528129679505749
0.0522866288147241
0.0515515384179058
0.0509301343529751
0.0502640438935318
0.0497325646058729
0.0492007617823281
0.0485906521994159
0.0484152558253446
0.0486672521513686
0.0493811466094037
0.0505502636989429
0.0522759754511061
0.0544112133883266
0.0567798159809579
0.0587840639766486
0.0602349057076835
0.0608550204628704
0.0604652122509446
0.0591868316550264
0.0574416326526836
0.0553886370612945
0.0531604443571627
0.0509199040655228
0.0484188463652246
0.0463282814761543
0.0448728483676963
0.0437091309864825
0.0428778157768697
0.0418311063055381
0.0412794500318721
0.0411130013477168
0.0406235327440122
0.0402386765379279
0.0402239182257301
0.0400576392114947
0.0398633921602643
0.0396741707177607
0.0393517945159548
0.039068171856846
0.0390131522105398
0.0390415561090056
0.0385593566130665
0.0381045162726831
0.0381267673058993
0.0379137811831376
0.0377024264714155
0.0376244806664794
0.0375048246358891
0.0374430931096826
0.0375893141740976
0.0374654035897697
0.0374488674464755
0.0373934665716536
0.0370731434976989
0.0369528692450509
0.0370910752500775
0.0372564106072406
0.0370380975807133
0.036655879856117
0.0366257583101106
0.0367599363621276
0.0365103413971181
0.0361851228559326
0.0362753537618195
0.0362303843624388
0.03594293274086
0.03589994041972
0.0357544553590537
0.0356348527357535
0.0355867151178046
0.035568420601291
0.0358678454123882
0.0359289377614301
0.0355811105930068
0.0355369011592647
0.0357188709536085
0.0356786120815624
0.0357189403282286
0.0356474867938851
0.0355082914136849
0.0354902411176392
0.0354589663266701
0.0357227611585283
0.0358398225269429
0.0354626893064921
0.0352039504078833
0.0354108983304947
0.0354010902327722
0.0350975837009518
0.0350838625267875
0.0354435755419918
0.0355966797073277
0.0354966156465687
0.0353012854135341
0.0350622638480306
0.0350130358056712
0.0351348622913811
0.0351663315619978
0.0350459125630394
0.0349622393511209
0.0351026480600528
0.0353895371018257
0.0354672087605731
0.0353991466365692
0.0351801325004422
0.034853209937526
0.0349442698973017
0.0352370657500237
0.0351216657702344
0.0347716789552326
0.0345388743394696
0.0347003079552084
0.0348857797462882
0.0348382541282921
0.0348713865510546
0.0349869922056275
0.0350342257574605
0.0351938423208279
0.0354434773962184
0.0354660180755708
0.035536600391381
0.03575245397318
0.0359296024109792
0.0358346923545121
0.0356420611549422
0.0355576174976928
0.0354692539728111
0.0354324209076065
0.0354341114710881
0.035331862868057
0.0352811890776601
0.0352670944229626
0.035289018503387
0.0353505761819041
0.0352746504978543
0.0350216985472643
0.0349594158179281
0.0351960810056264
0.0354419866962381
0.0353686070288883
0.0348201255800095
0.0341680144640442
0.0338552479360504
0.0337019176759845
0.0339068007470675
0.0343671570696147
0.0346564825655178
0.0348698637950927
0.0347548615879047
0.0341354663098232
0.0337388929978694
0.033864796739216
0.033503473549017
0.0330515147399882
0.0336588522057346
0.0342339505571631
0.0339444302092526
0.0336436679110639
0.0334318917212496
0.0332525596753456
0.0332584059019784
0.0334732256434161
0.0336174785853419
0.0331926043281983
0.0327442969077072
0.0326912032961976
0.0324277789297844
0.0321644891234338
0.0326597734503329
0.0331362345163245
0.03312265548344
0.033156695096524
0.0332859655035437
0.0331837337861306
0.0331013022443525
0.0329492370005568
0.0323972212523497
0.03205090630242
0.0322037645627907
0.0323555780890267
0.0321994208974616
0.0325628713823772
0.0330170085856236
0.0323712169248346
0.0321389136489814
0.0323020186483596
0.0323733508527134
0.032702343265368
0.0327262231486052
0.0329121829384854
0.0329025484279416
0.0326674269315108
0.0326342189562064
0.0322266481210358
0.032297263203192
0.0324302529275997
0.0318662934405818
0.0318431370723884
0.0323692277081124
0.0322945690765471
0.0319173838752861
0.0316096524875714
0.0315115709227683
0.0315573912713931
0.0315274254133901
0.0319558347368581
0.0319822784487384
0.0313827681033033
0.031526453091261
0.0320583279811225
0.0324115997012109
0.0322279222334369
0.0316442178310112
0.0316200323831069
0.0315888931340471
0.0315990609007123
0.0316762454255914
0.0315521082803192
0.0314793629842774
0.0316373827701346
0.0321220648773477
0.0320647937379773
0.0320209229015836
0.0323313684387071
0.0322316208110384
0.0316960906986818
0.0310657315152392
0.0308066263337467
0.0313127953551007
0.0321023881377871
0.0323504702103624
0.0317627695829793
0.0315118316824413
0.0316189278378868
0.0314809541442441
0.0316075196705911
0.0314716404953273
0.0314711546322274
0.0313768863494277
0.0313994829788519
0.0315860006986285
0.03101723742206
0.0308714963713676
0.031162975102602
0.0315801661853683
0.0317415327727536
0.0313679810656225
0.0307698431784617
0.0305991834904938
0.0307233305197816
0.0308543475709424
0.0308394952054855
0.0311134382894123
0.0314082016534917
0.0311234520470159
0.0307114226952994
0.0309322479024878
0.0311865510497287
0.0312157110739943
0.0311528114748965
0.0310600396986582
0.0310172061795518
0.0312404557150255
0.0315147113091019
0.0315437310541016
0.0314315913989802
0.031245568121599
0.0311059084770852
0.0316727836819377
0.0325450094963115
0.0323741781099786
0.0318274689072825
0.0326691270592016
0.0331795741988296
0.0323928805980193
0.0321576836975205
0.0317335799568031
0.030957113378377
0.0309613728989563
0.0311308662175113
0.030956066814834
0.0302787701697834
0.0296103350781559
0.0295071467788005
0.0308402973583006
0.0325651503007641
0.0335594024294579
0.0338803796086996
0.0335337275905507
0.0327309423925971
0.0321135861129616
0.0322403418226008
0.032591757234859
0.0319954495458027
0.0316397576239603
0.0320120936609147
0.0326118089743173
0.0332789609214321
0.0336729659226421
0.0337799961410547
0.0331899296820938
0.0326516867567583
0.0323907927912976
0.0326160348710666
0.0325846587263225
0.0324423983622291
0.0325906661202807
0.0323273932584107
0.0319289467574616
0.0321457249104548
0.0322775529505979
0.0316453407166275
0.0313102764829117
0.0321498629785534
0.0329017464129655
0.0327672091037775
0.0326540782854111
0.0324156447692758
0.0316038685595471
0.0316548064489886
0.0319414749866854
0.0313864392964682
0.0307210574157657
0.0301333224804825
0.029945480741653
0.0305699047160888
0.0310661010420968
0.0300547519960857
0.029290517082694
0.0294877056622354
0.0295637479211835
0.0293492638414398
0.0287811756604608
0.028800499107275
0.0288442311381492
0.0283907178615833
0.0287087977780323
0.0286193762541943
0.0281424239055329
0.0277917156700882
0.0278645862679937
0.028219863076951
0.0283281703746629
0.0278916804772526
0.0274981027968963
0.0282688761502533
0.0279960603383112
0.0277190377085944
0.027773050636189
0.0266736401699513
0.0262903866066965
0.026573457914939
0.0250364559021154
0.0239844157613183
0.0249052471101546
0.0257256609663054
0.026539540989303
0.0266323073317165
0.0269364945881381
0.0265503148226299
0.0251118488226201
0.0241834295304606
0.0242673887421791
0.025076157357493
0.025320983539018
0.0255683486159971
0.0258010837197075
0.0247891069554748
0.0253838515842419
0.0258227722348935
0.0255269660988475
0.0255565205550151
0.0243483628645511
0.0237724394285583
0.0233520160022381
0.022615218979933
0.0225866990895991
0.0214140366323897
0.0222090638126526
0.0226352985796639
0.0210627000049746
0.0208788776670215
0.021857362519662
0.0229520944904632
0.022794715377517
0.0235930111245027
0.0224837803464363
0.0200382318922795
0.0187565225855234
0.0198195370034576
0.0206777098313773
0.0209380814579936
0.0221756779405134
0.0231765423254214
0.0232833340203141
0.0231793490010995
0.0230379730510722
0.0231198991584405
0.0233114750835561
0.0233029681838172
0.0235872104018004
0.0244318364064928
0.0247825177967938
0.0252630377924143
0.0259047979876037
0.0260310664824211
0.0254021625964454
0.0257363686545382
0.0268158481261362
0.0275195458468066
0.0285203531211203
0.0289135014262712
0.0281218905168484
0.0282486981016553
0.0274434243733324
0.0262799638236802
0.0272227587340088
0.0274250378747346
0.0272271857599551
0.0271701940358807
0.0269540869994187
0.027306051935716
0.0277296240742538
0.0281444332081366
0.027857261734663
0.0267622057691774
0.0264666293163222
0.0270519821571064
0.0275264800483067
0.0282708953460564
0.028213473719796
0.0275157737933
0.0273383845364715
0.0275414416858893
0.0276318878973806
0.0271290437855552
0.0263600690536659
0.0272568025472287
0.0267680129431626
0.0254567850613786
0.0253213895519377
0.0252925921596942
0.0250097527784759
0.0254158128892039
0.0253734054758017
0.0244125222785913
0.0244440485133666
0.0243312184727739
0.024036595662257
0.0246425330918081
0.0258466640629839
0.0250610054509495
0.0234448202245329
0.0238235226170084
0.024057672060613
0.0229788676142629
0.021813903675828
0.0213308497113881
0.0214238614825647
0.0197067295172002
0.0197748016212817
0.0227917174622339
0.0249054546781081
0.0229753171889465
0.0224320957412592
0.0227812422723409
0.0234193459676396
0.0222686048698963
0.0198196629016824
0.0217120453488196
0.0242612265191594
0.0233747587992099
0.0238619490692973
0.0239424991297965
0.0230888176813892
0.025737217562802
0.0264262346780574
0.0260259359694743
0.0242865977313494
0.0238951142586381
0.0255202356670129
0.0244924756115197
0.0240019231000191
0.0240750637902893
0.0227451613554036
0.024118125294885
0.0244498549990967
0.0235043003129068
0.0243199527809193
0.0246169242338904
0.0249187416595209
0.0261620315012052
0.0258854511284563
0.0261544175504028
0.02641302262715
0.0265480203179851
0.027623372727259
0.0276536929067886
0.0271377356424919
0.0297621562094693
0.0314058058903988
0.031178376811591
0.031485379811615
0.0314808381422534
0.0308244823766105
0.0306560825203498
0.0303943412610904
0.0304098069210851
0.0298052901115121
0.0292968403882521
0.0293692579092466
0.0291808345805877
0.0293885044743274
0.0296985750748027
0.0296169943492208
0.0295112086655099
0.0292157964953689
0.0285168852012268
0.0285426189903681
0.0291078795266457
0.0289570737921482
0.0281463863865947
0.0283566432802001
0.0292714350626943
0.0298430155974241
0.0293349202210679
0.0286703729590995
0.0293423822899009
0.030580959682848
0.0311589797531439
0.0308518845459904
0.0307744417014318
0.0310173526705438
0.0312962304423604
0.0320277814219736
0.0324193079802083
0.0324033408791089
0.0329168009823582
0.0330724371745406
0.0332915346967906
0.0345567771074213
0.035334454355052
0.0347170656354431
0.0335423930847728
0.0330527822712769
0.0332624363819098
0.032757581739651
0.0323018437039947
0.0320330915176852
0.0319398083487352
0.03180763199165
0.0314452877196075
0.0308635686079607
0.0315093471801672
0.0322638988905676
0.0313208777013911
0.0299533201516933
0.0298311499182664
0.0303923216055276
0.0305668263968632
0.0305209745319054
0.031091778072113
0.03131636797375
0.0313069208658185
0.03137012226084
0.0312185585545691
0.0308665662917865
0.0310984226990064
0.0315561486173306
0.031755425438825
0.0318673511814165
0.032482500173082
0.0334363546847197
0.0336830542857994
0.0337249699540564
0.0341506065711716
0.0349570604661372
0.0357074064778318
0.0357976401933201
0.0353997440765009
0.0352457392220098
0.0359833401561896
0.0363504498023797
0.0348914073851938
0.0328949045733152
0.0323178387324696
0.0325116285148268
0.0328387618900574
0.0327910927155044
0.0324895570717222
0.0320502843793826
0.0324275087932471
0.0342042037228378
0.0344008494981923
0.0329648852596637
0.0317605684628848
0.0312893550171552
0.0314058992517582
0.0327878346759165
0.0330716197439658
0.0331382545571489
0.0333716685814393
0.033204010600785
0.034074211110551
0.0366706705281585
0.0376679662262923
0.0368990147182899
0.0363366454688574
0.0366072748134523
0.0377247428221914
0.0382102973074512
0.0372705956273621
0.0380998022393123
0.0401207037154587
0.0390788409743932
0.035901443011926
0.0346403842920497
0.0340691953356167
0.0343369254159428
0.034500094191453
0.0347598067699081
0.0363677946309592
0.0384849631989049
0.0375868682722188
0.0345943868403082
0.0324523905581971
0.0319800503422011
0.0330173411828247
0.0346262006705801
0.0349301948576653
0.0350406747422113
0.0365670045631407
0.0373081188000341
0.0356420657363703
0.0346567086176881
0.0328844409638431
0.0321884661365035
0.0336446099539365
0.0347095925945452
0.0370840968413089
0.0398926845839802
0.037894614116329
0.0339458567302686
0.0339317511484038
0.0357226368894181
0.0375240475107043
0.0370250862869901
0.0372034867797404
0.0382044573136121
0.0368973008940104
0.0357851664297615
0.0369247015395515
0.0377461738094905
0.0367344610743939
0.0360563293404176
0.0378187159587808
0.0422463931115715
0.043829844623317
0.037550301556218
0.0357878964551391
0.0376867917625345
0.0371763320900411
0.0349930593703845
0.034293113027959
0.0351524271356201
0.0373305317554252
0.0395918430251256
0.0373766559008387
0.0337948020816812
0.033580768210337
0.0347052059009995
0.0354644340845035
0.0357204514145834
0.0356411435600809
0.0342026926849603
0.0340660486670678
0.0355306488948284
0.0351134171999632
0.0330726867019691
0.0329369535325583
0.0341668173956988
0.0367798084162945
0.0417218382084767
0.0487812282827738
0.0568782899133354
0.0624909311015438
0.0628906044544911
0.0593066732688001
0.0546973289989418
0.0502223167275813
0.046701830598103
0.044151538974788
0.043080972429488
0.0438726790210513
0.046245444319964
0.0472465348624531
0.0461863783247519
0.0454045195119585
0.04501290435472
0.0408330555990479
0.0379909681286487
0.0388386695297387
0.0389168655970327
0.0368510238520121
0.0359750105628301
0.0358745315899889
0.0381393169141345
0.0440927510190261
0.0418992623467429
0.0354915476493877
0.034714094015839
0.0352581136804823
0.0360385612000213
0.0366740866285344
0.0372512979974528
0.0397158742921627
0.041980909621246
0.0443690077577704
0.0423471201949353
0.0373490612297614
0.0363317157751237
0.0381115818506196
0.0368418071821521
0.0354644265732747
0.0359274964692627
0.0363577636108467
0.0362041191472854
0.0368012175751245
0.0367762939995962
0.0343676313589653
0.0342921661094078
0.0338056120286022
0.0333808987913351
0.0340850796423161
0.0352955790236661
0.037848361366337
0.0362089906537976
0.031599061499902
0.0308287851070703
0.0331150207877716
0.0384610232404078
0.0536838190704174
0.0811503970182985
0.104929601650688
0.110626206173676
0.0953682574898485
0.0774958417482659
0.0649833411510282
0.0575385329256927
0.0528340510729613
0.0489871619890861
0.0470661172927515
0.0468123962903507
0.0467515018805304
0.0458194418275887
0.0420624249072685
0.040705614981751
0.0416782628012847
0.0424036956366599
0.040689925616227
0.0402729269879691
0.0421637920707213
0.0488534013965973
0.066698657700727
0.0892807289831062
0.106461436915352
0.109936257160361
0.10486613217854
0.0964647361955164
0.0896492706338187
0.0834973401304994
0.0783523368161128
0.0756486465801282
0.0727418484213953
0.064396928905355
0.0590300476991604
0.0568652790071783
0.0542404779891751
0.0510866430367547
0.0497780913736774
0.0492184186130925
0.0484760425213833
0.0497163219324741
0.0484166095131742
0.0450686485450619
0.0442538681193817
0.0442789103636272
0.0441908918449528
0.0434239859176131
0.0433542569794088
0.0433563498601103
0.0424248198046743
0.0420737666376175
0.0430594348100334
0.0428338655693587
0.0429688586491593
0.0423907852451787
0.0411251271355373
0.0418657501139313
0.0436871297764689
0.0443597633993436
0.0438077935058861
0.0444619864382906
0.0455430327286917
0.0467400334469085
0.0478467059601851
0.0492983499267937
0.049669712670879
0.0489136046353591
0.0491457538974488
0.0491928631341332
0.048875539884104
0.0495225205992793
0.0496849100713321
0.0483465240557293
0.0474781165551536
0.047043764001956
0.0466832993195382
0.0462819235705188
0.0460920569725069
0.0461346000607764
0.0460044287930293
0.0457544838045997
0.0454702563542099
0.0454739116693071
0.0456369378946732
0.0446975090313032
0.0438501467158291
0.0437480191963104
0.0441349702850133
0.0447031899140947
0.0452741916853461
0.0455491780468526
0.0454915015993028
0.0451349542376267
0.0448741620173313
0.044673216191808
0.0445155561259461
0.0445216190990352
0.044745340573384
0.0448426185371787
0.04478973566878
0.0447440199416185
0.0444922830267827
0.0439584341490694
0.0434341702559075
0.0429334029408447
0.0424987607438707
0.0421297893084298
0.0419479075896305
0.0419038141638485
0.0417521628741962
0.0415372727565419
0.0414009767578621
0.0411316136852564
0.0410740978195702
0.0410607897259102
0.0410145141612203
0.0409994949090489
0.0408379905527492
0.0405294113442656
0.040374742702822
0.0402527786993185
0.0399110487581401
0.0395816434303118
0.0393568197041448
0.0391551925073751
0.0389633856992613
0.0387983033750339
0.0386435356360477
0.0385500124006685
0.0385190532495462
0.0385227886470448
0.0386378926651686
0.0386675091803872
0.0385599848385112
0.0384941898303501
0.0385324437553827
0.0385059129319433
0.0383808493255913
0.0382338248994363
0.0381996507660358
0.0382010874625104
0.0381628207199083
0.0381112541225571
0.038199609237817
0.0383383448266052
0.0383384300796864
0.0382081629978238
0.0382286947236505
0.0383233069190837
0.03838259936937
0.0385299642485095
0.0388712835198248
0.0391772580206372
0.0393937095339053
0.0397414028745921
0.0402938667242448
0.040942103976547
0.0415890325443417
0.0422524378233123
0.0429715193271632
0.0434912243802804
0.0437678034192982
0.043990293423827
0.0443499992960256
0.044851995829636
0.0456492129852391
0.0469944317784187
0.0489472149436657
0.0508771190708399
0.0517128573395526
0.0509892075226994
0.0495417527928546
0.0483171448382453
0.0476534473214874
0.0472029738757116
0.0471070081864908
0.0471914077719024
0.047334256727529
0.0476483220542827
0.0482988672289102
0.0495963510172206
0.0517544879817863
0.054239348153783
0.0556880688954552
0.055362745359623
0.0538600879136749
0.0522711644125905
0.0512627380686782
0.0506356741180215
0.0501004354823228
0.0498381277264605
0.0498224283379535
0.049780271807263
0.049915332446251
0.0501614678942568
0.0504576651010629
0.0508945405637445
0.0515038008649761
0.0522000422842475
0.0529193093422392
0.0536206249057734
0.0545494232612561
0.0558195008026006
0.0571517868130318
0.0582816707183866
0.0591632844674444
0.0598405156891508
0.0603551226521094
0.0607826336873683
0.0614256083729494
0.0618789598259391
0.0624435467882245
0.0630736268452674
0.0635890984035208
0.0641505882233644
0.0647073470774879
0.0653831561957675
0.0660200885626392
0.0665561213114083
0.067382400177404
0.0682949639093003
0.0693791673566366
0.0705004443977233
0.0716986749595929
0.0729588289878129
0.0744898600129255
0.0766073287031897
0.0790663225178868
0.0811904038922664
0.0826642402009012
0.0832478732504103
0.0833479553962063
0.0831399806644008
0.0827409521507868
0.0824507255442979
0.0822998306724145
0.0823892165250322
0.0826348693118196
0.0829080324445352
0.0834383345822623
0.0838155789807263
0.0841614060511355
0.0847341765874178
0.08550859600521
0.0863221927950895
0.0874220179916133
0.0897259179523927
0.0942054649173051
0.100954408795261
0.10825155913497
0.113769557584342
0.115578787579794
0.113384969968751
0.109605028241277
0.106118731041342
0.103309785418646
0.101131377535855
0.099398168885885
0.0976848636842785
0.0962487449560069
0.0949879178086013
0.0941081662105671
0.0935270947569118
0.0934378549296501
0.0931684584537994
0.0913923188505512
0.0887738294873358
0.0864939729979554
0.084669194617234
0.0830739700754976
0.0816364420238472
0.0804053940014252
0.0794121424418322
0.078926007988534
0.0784049714947573
0.0780004960895736
0.0776811968073872
0.0764163637862667
0.0744254561656775
0.0726293721348457
0.0709026703143551
0.0696607703649819
0.0691721580201383
0.0691065757989002
0.0691503785127848
0.0689196004311358
0.0677525108403499
0.0661119564778007
0.064324978611422
0.0625436569121366
0.0611786245474287
0.0602303573847941
0.0596880504252124
0.0593491402932179
0.0590700672146816
0.0590376097563722
0.059042193426943
0.0586987731189274
0.0581503242597448
0.0573432160993178
0.0563037167098814
0.0555665415316353
0.0548152850948552
0.0540974051347138
0.053238381420663
0.052560898492251
0.0523637280327327
0.0522369940798808
0.0523821087873438
0.0527626870590688
0.0535688251892605
0.0549202591657557
0.0569670848790236
0.0597094944911069
0.0628953166000801
0.0654089618185429
0.0663902312481398
0.0657110122695221
0.063248964327654
0.0595616824760164
0.0557633196478196
0.0528360595943521
0.0505328293216595
0.0485481711719186
0.0471970498835006
0.0463917105691382
0.0453708844372667
0.0445465805422506
0.0440516678900535
0.0436069288087413
0.0433983717343748
0.0434571191640881
0.0437282881627163
0.0437417852102107
0.0427864956042217
0.0414721461920929
0.040373003952453
0.0395127432303563
0.0390100287970364
0.0388068872123597
0.0383639357096187
0.0376219748807022
0.0371234717878044
0.0368364889517529
0.0365484811533452
0.0362763032081056
0.0370144995251968
0.0383462313960657
0.0393690972775697
0.0401819239338933
0.0412643863828901
0.0421725536030061
0.0421520283146572
0.0410489709514034
0.0393015506470264
0.0375996035534414
0.0362509813072946
0.034992673850091
0.0341703810480604
0.0339539148504485
0.0338289655103903
0.0334568299825126
0.0329948376913734
0.0326286033365976
0.0324828207710676
0.0322595719455057
0.0323502956018135
0.0326696333143344
0.0329654188732431
0.033891066533553
0.0347096922742314
0.0352578615103711
0.0362231665003389
0.0367989232354752
0.0371603276752333
0.0376460912368121
0.0377176581066672
0.0374262798013621
0.0375280536391029
0.0385883617660185
0.0399607646892124
0.0409418596982362
0.0427027406681875
0.045203989108171
0.0479437469621951
0.0513664460538922
0.0555886881693008
0.0606700054222491
0.066631290039784
0.0732683946127829
0.0810474783439774
0.0894069480510897
0.0973659880957965
0.104853116837305
0.113379263745239
0.121793429321363
0.127611210102865
0.131206289068941
0.132063753648483
0.13155573531105
0.131451023496855
0.130864821511385
0.127036393405601
0.11809434985274
0.106792366014017
0.0959763048925933
0.086348257855535
0.0778304845123968
0.0696264123648693
0.061180856476807
0.053804140073233
0.0483248528665333
0.0445149114570288
0.0423752840940962
0.0397264003744305
0.0365687312786991
0.0355731440790553
0.034937271091275
0.0339687755313702
0.0341942531332535
0.0374234448955874
0.0457260714892925
0.0608617161095026
0.0846611588745
0.119016664642587
0.163250399616678
0.21644035457983
0.277789056820357
0.336556123664155
0.354995491255787
0.310334602390929
0.243504319798348
0.193596197189545
0.163240597570592
0.141925112962083
0.126414637393965
0.11496499475094
0.105875760134271
0.0994666462012236
0.0944332801377941
0.0901457309881112
0.0872560342364028
0.0874819663993266
0.086328950155955
0.0772886968571669
0.074554848748023
0.0763592151317189
0.0752353473679399
0.072000696845689
0.0699586574970316
0.0667589719152685
0.063816934447972
0.0632686654005329
0.06274010830461
