1798
3999.43349933624
650.420452594757
1
2
4
0.0136842797641514
0.0134243546999311
0.0134525641632264
0.0136475051865769
0.0132926378202575
0.012874731484852
0.0130032380380551
0.0132652394794263
0.0134312770924503
0.0139681608485137
0.0137801122904893
0.0131448896604818
0.0127995768014855
0.0129343416132741
0.0129822741877266
0.0131283822359756
0.013714085806284
0.0140420824042591
0.0134264685898322
0.0128051843290406
0.0132938925541216
0.0137444136732098
0.0135433853117904
0.0136682334199379
0.0137890320762321
0.0133652873006787
0.0128408771930327
0.0128701838595029
0.0128133926359904
0.0125917223940321
0.0130011218430361
0.0132823981563868
0.0129306806753691
0.012870383589898
0.0134892419107276
0.0134143691538752
0.0130148112832009
0.0132564702227491
0.0130812195428223
0.0126101841099737
0.0129300713155345
0.0132096008137852
0.0131303371331322
0.013099249932454
0.0134050519580132
0.0135602755383241
0.0128916791964786
0.0124505920253136
0.0124336367238089
0.0122548574226415
0.0126710593823536
0.0128927066189944
0.0126660840029913
0.0124652943790691
0.0123219080454355
0.012229466697458
0.012501730992408
0.0129287179316504
0.0124503036255139
0.0119583341256827
0.0122005061904455
0.0122074839060542
0.0119310452830994
0.01186084104394
0.0116503406715036
0.0116256691730891
0.0119640991381164
0.0124002084908974
0.0123120478504178
0.0121936575464278
0.011914809022831
0.0115864223294316
0.0116160508484395
0.0117581934087041
0.0117270136691924
0.0118993086811497
0.0126245738884614
0.0133682948375899
0.0120686056736709
0.0103628079887962
0.0108782176524517
0.0112709723558747
0.0114227604582365
0.011999823324804
0.0119783639112335
0.0118568871540483
0.0116290969943958
0.0112473864049889
0.0111931481024251
0.0113585136398498
0.0112093199210412
0.0110552347988052
0.0112503560908875
0.0117919527076844
0.0121955989623152
0.012476198725779
0.0123203607474166
0.0119876489303718
0.0116155294925549
0.0109696210465932
0.0110125357832702
0.0117290592211472
0.0121146511031813
0.0118480916122384
0.0115176829185501
0.0113157493150934
0.0108558645395632
0.0108560349002394
0.0107275449068314
0.0105477919022137
0.0104870792163471
0.0109829546122579
0.0118039373482945
0.0118540009184991
0.0110856351457423
0.0110218812355415
0.0117704089595355
0.0119757298901347
0.0117573606029132
0.0120167719792558
0.0121134442788298
0.0119660871791138
0.0116103142312529
0.0109687774707947
0.0108651820285135
0.0106642239920279
0.0105584767630978
0.0108702278529591
0.0113069808573509
0.011518147981102
0.0112518408068899
0.0112558433224806
0.010841656764383
0.00999063388259587
0.00955373084993038
0.00974550420253676
0.00913692865813505
0.00883147818413402
0.00960394364707058
0.00994993655142868
0.0100651824957922
0.00980614139535585
0.00940705854220132
0.00926236943620322
0.00954090032664712
0.0105709327394753
0.0109300066811749
0.0103596175595302
0.0102156342784013
0.0109302769444458
0.0110422110475939
0.0109453038490788
0.0111846979721055
0.0110266594643004
0.010412173605105
0.0105818682544257
0.0108752491548467
0.0113556774420169
0.0128015747549918
0.0138047732500907
0.0135018291796297
0.0136526036978231
0.0141375196035227
0.0141632124158816
0.0143558985999053
0.0148784960168324
0.0144343866929041
0.013071637645394
0.0129356595516308
0.0130437619548913
0.012867453014416
0.0133714118815114
0.0134978657031478
0.0135436146304
0.0136284422694789
0.0140332585908588
0.0138136060745312
0.0141574788338046
0.014746362545994
0.0151525065062705
0.0157118361786566
0.0163342231132339
0.017396073442707
0.0177068250465928
0.017727551424842
0.0178959783228113
0.0180305705963872
0.0185235252789157
0.0183206398658299
0.0190661208448463
0.019494160030637
0.0196097321478718
0.0207095083438023
0.0215334167893062
0.0206652351222511
0.0213071535100129
0.0231908421867533
0.0237803273597128
0.0238035398067146
0.0232916404359108
0.0231635463411528
0.0242150259861217
0.0255328022124048
0.0265072419616736
0.0260711907195514
0.0260774512439608
0.026568075713753
0.0270158185123151
0.0276247636333697
0.0278918921747694
0.0278820563296243
0.0278480015303396
0.0283808795734531
0.0289037661116108
0.0287044777332771
0.0296476618273819
0.0304227617018692
0.0302034870428849
0.0301515187325594
0.0313318293955718
0.0316580834835053
0.0307927006172209
0.0311155025795797
0.0326988529109815
0.0336062446709942
0.0338226699568104
0.0334263587866419
0.0337522632461884
0.0338910653359687
0.0339304024012375
0.0339925227453418
0.0352611119457199
0.0370022639943519
0.0377212244406818
0.0374120098695279
0.0378197122359827
0.0385500510150507
0.0393537632789551
0.0397470471481879
0.0399893750274033
0.0401256095044239
0.0420046545720317
0.0433207624689821
0.043205971654027
0.0424671883940337
0.0431377835791085
0.044229320379879
0.0442127060813189
0.0445128808300766
0.0464398746120205
0.0471415112277892
0.0468079242697111
0.0477413848570269
0.0483261640723017
0.0482464093241144
0.0490071480263747
0.0494194086884
0.0500107572923315
0.050555361546375
0.0515762438105862
0.0516536821918694
0.0512495408439412
0.0513929158702133
0.0521693622474593
0.0526624812872062
0.0536564925924602
0.0547830708750246
0.0558190778959016
0.0563160196852607
0.0561542014778998
0.0570763886696335
0.0577757387943592
0.0572033160914605
0.0579484399373593
0.0597488384409809
0.0601926274851403
0.0602468134297098
0.0602676757612521
0.0598610799231073
0.0614996265357002
0.0628714229006102
0.0627728419586482
0.0634196551710118
0.0646200718497468
0.0650211822195973
0.0650224630397241
0.0659732023385035
0.0666049780275616
0.0665970221138133
0.0671503923083004
0.0669725079449836
0.0666965844246735
0.0675348357016153
0.0689870326479721
0.0697305954323677
0.070112939941248
0.0699225175301427
0.0712798536641336
0.0728385403798017
0.0735085543250896
0.0728555467864523
0.0725281883289898
0.0730913811531784
0.0748552099527589
0.0761605477619406
0.0769123798924819
0.0772976943463116
0.0766754109217126
0.0756338070191855
0.0761715184214431
0.0769595242956779
0.0780988551318082
0.0790055887371457
0.079600033711866
0.080056915146126
0.0801679770453693
0.0804620218234202
0.0808453161113365
0.0813631523829011
0.0817619462610124
0.0819698023214602
0.0824899940442062
0.0833391793087142
0.0840096782553154
0.0837786145490997
0.0842445093627535
0.0849038191150621
0.0856338099640326
0.0854350032056134
0.0854588009796939
0.0861047371948205
0.0870587963309291
0.0884941635223036
0.0888547089668356
0.0876801136712175
0.0878914645288435
0.089179812595828
0.0905680488785942
0.0913482408637131
0.091160127962768
0.0919827233470729
0.0937235469303487
0.0943157875002234
0.0938544081722719
0.094154811377158
0.0953541536568294
0.0964642404877521
0.0977826547456156
0.097929050286306
0.0982573759517108
0.0990920289063581
0.099884076934599
0.100892816604977
0.101738380180411
0.102601677158797
0.103708000483003
0.104178358232133
0.104358404060733
0.104490123216186
0.10574472115057
0.107311773104049
0.108083533687501
0.108449343299237
0.108516990087375
0.108925695743018
0.109862909575574
0.110509737858707
0.11124873947312
0.111909714608191
0.113311625340489
0.114580816213118
0.11484654450001
0.114587269898948
0.113858954947288
0.114433230699499
0.115986018024032
0.116479505162101
0.11708312407245
0.117827843405515
0.117592337574139
0.116911114972952
0.117317821133726
0.117908486105041
0.118432620779433
0.119001597913075
0.11896731359566
0.118213274600719
0.117867187037602
0.118203738231948
0.118415567002461
0.118203345240329
0.117743753580412
0.117156114249512
0.116939550783793
0.116467621914271
0.116440231610423
0.115996094654005
0.115721356045205
0.115762427364713
0.115138938254971
0.114173113083419
0.113066598261116
0.112044711076951
0.111874584856522
0.111608093795723
0.11077015276761
0.110262794402408
0.109732564195988
0.109044500871238
0.108937732545537
0.108786860660737
0.107913909125614
0.106985117228683
0.10628466599868
0.1057130886708
0.105882464648478
0.106231286158259
0.105875378077479
0.104746063714997
0.103860970777896
0.103477093162901
0.103729542335672
0.103499822894278
0.102464174718395
0.101730394115622
0.101628188688204
0.101345308049448
0.10095588673096
0.100479625083325
0.0993296808067816
0.0985736555344632
0.0983994271606127
0.0979880652763287
0.0978689278788021
0.0974987656209407
0.0970349850914071
0.0961533032611551
0.0953590043524627
0.0946900023004716
0.093978489718924
0.0934125960421056
0.0926727762662504
0.0921395045324005
0.0912413596389679
0.090273673813118
0.0900323484929731
0.0893261491648809
0.0888765557089549
0.088251591306848
0.0867103347590829
0.0856379789370434
0.0855717507699515
0.0852054401906631
0.0851923415116779
0.0850263381103655
0.0836057615628679
0.0822841441418079
0.0818122760657739
0.0816327355016247
0.0818475043857652
0.0814766788655557
0.0800380756229715
0.0787282660103883
0.0779722037861179
0.0779382770375576
0.0780817536833644
0.0776930553288818
0.0770509488396825
0.0768954987671613
0.0769716978490618
0.0766691327063025
0.0759510457888136
0.0754990116467269
0.0754739725010641
0.0749447850299929
0.0742146305711702
0.0743742467902816
0.0748925550350946
0.0745914228091784
0.0742250947156614
0.0745404024355653
0.0748159126878969
0.0746133101629996
0.0742384097149707
0.0740915311780423
0.0743407467366196
0.0746929797441371
0.0746619737627134
0.0742933617831721
0.0744784628886587
0.0748971035273735
0.0749409151875038
0.0750560135968718
0.0755157165248813
0.0753993250339465
0.0747961201719168
0.0745797481780798
0.0742982855358375
0.0738741767861954
0.0738547238634656
0.0741479469899703
0.0739415241248261
0.073199026426911
0.0725932673654541
0.0723780845850119
0.072324977806206
0.0719587527776544
0.0714165657662057
0.0708413963618068
0.0698611963575302
0.0692112537613157
0.069094024970267
0.0685615919067652
0.0677652332007155
0.0670353603060095
0.0665875839523973
0.0664561945307917
0.0662052701860801
0.0655478445136055
0.0648367816691401
0.0644174565418971
0.063858746662277
0.0629727310277903
0.0623792861567365
0.0625006455947402
0.0624650905582574
0.0619750190624661
0.0614877180637563
0.0610285568480865
0.060539111506467
0.0599425655153287
0.0596401154747067
0.0596133253413081
0.0593543044276173
0.0590681372835232
0.0591109288050378
0.0592345899906879
0.0592453056912853
0.0593152304167444
0.0593989043897471
0.0596166897233499
0.0598465364204454
0.0598384015217976
0.0604024934665318
0.0613790649299256
0.0620220151884533
0.0627199578915173
0.0636331016249076
0.0644388706557734
0.0652369130230918
0.0661555379498462
0.0669518306409103
0.0676853297018348
0.0687956974551662
0.0700246939341705
0.0710296703851985
0.0719565460422916
0.0729009527739483
0.0739780528651307
0.0749242812192386
0.0756528720661294
0.0761282073324236
0.0762422070608169
0.0761542875195938
0.076191746853972
0.0765930200364258
0.0771465679526842
0.0777450227948653
0.0785545274072362
0.0797521623091625
0.081072517067702
0.0819136681462344
0.0828413977358016
0.0840903156011718
0.0849435468103488
0.0856512056729823
0.0863544453993269
0.08684236120215
0.0873002426122315
0.0873846347831143
0.0869142492171509
0.0857773401204767
0.08437223252959
0.0831062583182235
0.0819361272504722
0.0809144752989474
0.0797055586544567
0.0783305137258935
0.0773351103838527
0.0761459086442974
0.0747447737441973
0.0737786378568651
0.072777165577747
0.0718281200342061
0.0715840143232552
0.0714514537770738
0.0711731150994597
0.0708803453548649
0.0703760134068351
0.0700014980399283
0.0698594199523986
0.0698070463640728
0.0699400612917434
0.0699945073419188
0.0699717932532843
0.0698743649178785
0.0695234539862061
0.0685861294068372
0.0679170972668403
0.0677482872142297
0.0672410025627605
0.0666808648027621
0.0667279920005401
0.0672036559910726
0.067572324747761
0.0676663213444083
0.0682380392604327
0.0684895779981741
0.0673317583207218
0.065691863502829
0.0644736391978895
0.0633211745329434
0.0619004573464401
0.0606760577993387
0.0597132560672797
0.0586388704829749
0.0576935746688271
0.0568793191618049
0.0560791205665744
0.0553705343325132
0.0550572734754869
0.0549624187217996
0.0544650169184916
0.0537092680930876
0.0532554573921943
0.0527694343211584
0.0523103224555247
0.0519582667878108
0.051321985086178
0.0507891553926425
0.0503213946736559
0.0499698790969533
0.0498646010921028
0.0496561283639631
0.0494611157002475
0.0492275415179199
0.0488838097392982
0.0486336392026982
0.0484453932382971
0.0479760483382235
0.0475301442463287
0.0475276692725835
0.0473954215083544
0.0470205097268423
0.0468807824635339
0.0465273093256139
0.0461282883002445
0.0458953633360371
0.0456332395782383
0.0454077704755185
0.0453184718508285
0.0448523388296714
0.0443924659467642
0.0445166933581973
0.0446763138016352
0.0443339505230176
0.0439384438662979
0.0436468197674374
0.0435112214545748
0.0434471165382051
0.0433199726821783
0.043245502738843
0.0430764971456191
0.0427001176789204
0.0422788132919004
0.0421764587940633
0.0422050719893953
0.0420930218907331
0.0419667794041748
0.0418852302357617
0.0416528978175919
0.0413201596087117
0.0412714116163473
0.0411543255221596
0.0408570984226518
0.0403862090653971
0.0402485112974421
0.0402382975813985
0.0402414937018113
0.0399743133606952
0.0395444614876915
0.0394655789872674
0.0395254331080461
0.039442513783544
0.039229083763233
0.0388260579516415
0.0384762926785379
0.0383596690080545
0.0384782833060215
0.0385855212403677
0.0383183035592276
0.038141033649527
0.0382575456474693
0.0380994022898451
0.0376776808367928
0.0374186674529701
0.0375107308028515
0.0375364689768802
0.0374039717793149
0.0371024521388692
0.0369289590598006
0.0367901338610727
0.0368450175630682
0.0367218861131598
0.0364484647298412
0.0364191449246118
0.0364324833175636
0.0362914608950828
0.0362971219886622
0.0365552971428095
0.036674366468926
0.0361729695253657
0.035912256288989
0.0361690993458867
0.0364920607866392
0.0363436990904334
0.0357384808802323
0.0352248895922502
0.035001453336756
0.0349128324359107
0.0349664315240322
0.0350641626363859
0.0347355520777135
0.034399355939437
0.0341224449189479
0.0337912987505561
0.0339342270013849
0.0340233873268983
0.0338196015094442
0.0335428475518772
0.0333110071875896
0.0326834169536833
0.0324765738913235
0.0325120960995089
0.0324321185873979
0.0322141280772569
0.0319326515402819
0.0316852389012661
0.0313404434090855
0.0309355785340873
0.0314269526896739
0.0321014919192342
0.0318159196973296
0.0304616745455797
0.029591597914563
0.0298294946882791
0.0300449065919558
0.0303176832341871
0.0305826508366328
0.0298118949633756
0.029282525109326
0.0294644024022678
0.0299121026830307
0.0299433586720502
0.0293220398793797
0.0289532176852345
0.0293139461886501
0.0291297733498097
0.0284632813941022
0.0286444938512088
0.0287279820096058
0.0285594086790261
0.0287596388987689
0.0283985553820509
0.0282075030467577
0.0282982838283964
0.0279208706128516
0.0277962103997029
0.0279445424036278
0.0278251937176676
0.0274167811785486
0.0273281688150994
0.027226382482961
0.0267440591227152
0.0268744817507806
0.0269827610918697
0.0264968114728609
0.0261750266603474
0.026212331655798
0.0264383425270904
0.0263606108022006
0.0261229769856407
0.0263338494542966
0.0265312923259055
0.0263149840505482
0.0261175976779348
0.0263742007191632
0.0262513811298404
0.0259181531829959
0.026380278375154
0.0264901437861415
0.0263460656999617
0.0260666659117867
0.0258213968381554
0.0256073127514121
0.0256342355560807
0.0258311395968541
0.0256210269722365
0.0256884426628912
0.025506868681645
0.0252200086580826
0.0248432781675329
0.0246224667296733
0.0246184634981427
0.0247092560151312
0.0247061781924703
0.0245640959865206
0.0247988057503017
0.0250583690896097
0.0248033680363807
0.0247537515200682
0.0245988551524176
0.0244414612851691
0.0242970482854458
0.0243520620221788
0.0243263061654
0.0243152143948904
0.0247452172843349
0.024938948703416
0.0248529689862315
0.024285604846399
0.0238340005798738
0.0243120151020754
0.0245256091978099
0.0240169364780592
0.0237666929872157
0.0237823225579996
0.0237414695479908
0.0239621421028072
0.0238655184267828
0.0237340817446109
0.0236710023367538
0.0236895443607161
0.0232312492545165
0.0234543655967598
0.0238943087056403
0.0236963920829877
0.0233139611017065
0.0228108739124235
0.0227287386236935
0.0228688641835823
0.0226539880505381
0.0226939560874655
0.0230518632363758
0.0229740498485162
0.022518791798743
0.0225381972955384
0.0225389505311352
0.0229392462891326
0.0232269266087396
0.0232865550923435
0.023069912274016
0.0229442821917378
0.0230793589016845
0.0229132862459778
0.0228321584087826
0.0231552968383754
0.0229719609273283
0.0228065475637732
0.0229823614740863
0.0232778026640757
0.0236267688561088
0.023205481236312
0.0227596410529351
0.0228644934801037
0.0226231868500683
0.0221632527565114
0.0218266356561879
0.0216376800272379
0.0215328108486915
0.0214924913525225
0.0212993204264625
0.0215571106432587
0.0218617050169736
0.0220234086192926
0.0217878919612421
0.0218304072292713
0.0224147791209038
0.023104066840075
0.0230736344799158
0.0228049211217054
0.022563899688027
0.0222612996192321
0.0222141396838904
0.0219405856282983
0.0216815949742846
0.0220343344602263
0.0223208512809086
0.0226188188146111
0.0231319650351851
0.0234138516043805
0.0230814407577576
0.0228060946927394
0.0227296577569877
0.0225335883927932
0.0222861462093696
0.021951281740516
0.0217929246903467
0.0217795023770783
0.0218562742599674
0.0219544514049253
0.0214535123559091
0.0212933412596486
0.0212124853907375
0.0209618749187225
0.0210313765730604
0.0209273054834386
0.0206990231906717
0.020587032532703
0.0207461951234729
0.0211052250554456
0.020617758865804
0.0196566897469531
0.0192193050058373
0.0193088617912668
0.0192049965435116
0.0196064896182836
0.0199404892769362
0.0191179079232926
0.0188046487834701
0.0190285801075192
0.0183119395849111
0.0179808099388697
0.0178341377345772
0.0175428012538103
0.0168589656763759
0.0160566555551176
0.0157481445219628
0.0167727453580099
0.0169641905425366
0.0157450435329145
0.0160330375277689
0.0164105049876339
0.0164052265623992
0.0170862929163296
0.0167844027569559
0.016259074054259
0.0158759156582392
0.0157179501971148
0.0150465108104503
0.0147328425026838
0.0155630376554101
0.0162126515575757
0.0153954856223718
0.0151140599064475
0.0146922590717198
0.0136528265198843
0.0129511440460066
0.0133494777770387
0.0135806221790571
0.0131547557954713
0.0134279302168175
0.0134252719902219
0.0128026934258333
0.0135576812831774
0.0126409201085094
0.00997832142262452
0.0103120610761895
0.0124587143028217
0.0123353841885981
0.0104211727831158
0.010902224514569
0.0127244022934367
0.0106877346996382
0.00933260716710213
0.010312767186135
0.0109094842112831
0.0105347889108475
0.00941804657895924
0.00800316031382087
0.00748261819827944
0.00795153210003939
0.00846651626128948
0.011346436178563
0.0104388958273496
0.00554546970749539
0.00475330912808954
0.00391486963731688
0.00224908663143101
0.00525962451349346
0.00777311170760203
0.00795962052260466
0.00809510771401554
0.00956983097875559
0.0120061682627789
0.0127796338844126
0.0116454630867836
0.00982413327123745
0.0101061750430407
0.0119370819168245
0.0133194111031976
0.0141875664725062
0.0157500615449359
0.0158578032968582
0.0153032878810865
0.0155251930460421
0.0161230012612486
0.0164737529855619
0.0166670934097322
0.0156903581745092
0.0153889527851264
0.0158843298361761
0.0164747242850741
0.0166128536532577
0.0161871638332294
0.0159960102531314
0.0164302048497146
0.0171475311009861
0.0174667422990497
0.0164172642575829
0.0149812745648062
0.0147464557725866
0.0149759017211995
0.0148893361147827
0.0153032912330276
0.0159960323366047
0.0163019959983396
0.0161577434778151
0.015516644626044
0.0151287286790742
0.0152452849154897
0.0143579408944224
0.0140065045256533
0.0147451261045708
0.0150177602450068
0.0142699515658636
0.0140476562921107
0.0146223269419427
0.0153142071278289
0.0145469769719286
0.0132767114427255
0.012815152049311
0.0129474456296116
0.0125794052775497
0.012029701939864
0.012233633465794
0.0115991985847068
0.00944057843566873
0.00975129246401934
0.00999422326694988
0.00861143677764523
0.00700680759923335
0.00797278050674864
0.00902022398365891
0.00901164231354488
0.00841240943214281
0.00768956792966424
0.00788688411481513
0.0086873174729256
0.00919799281438982
0.00826091174830666
0.00628598273305583
0.00509611159551938
0.00415674570141499
0.00613053072204523
0.00815429786617647
0.00833910613157382
0.00903030594275032
0.00926452735504102
0.00730041891031389
0.00725586628119759
0.00936532235478336
0.0102510919578717
0.0100875635975569
0.00941071093877129
0.00922316345535524
0.00996642375862058
0.00887462391428337
0.00787782886015139
0.00781184541471922
0.00796189349791982
0.00805937482772656
0.00850101777235728
0.00997359364904936
0.0103026314958362
0.0081849976136552
0.00794169230534264
0.00790716561850746
0.00745881835255906
0.00747803936637333
0.00806923265746629
0.00894983354958413
0.00799518066521041
0.00773192009617904
0.00935867815135305
0.0105108798211504
0.0110968583833176
0.0118186279749578
0.0128288334468209
0.0121852939168755
0.0115782330573928
0.0124917987050455
0.0123110748937683
0.0119208038862732
0.0125511118463703
0.0127784011511916
0.013090294656572
0.0129686747487713
0.0129792680511976
0.0131370012890086
0.0132388639719026
0.013560603936249
0.0137161738086109
0.0136622754100403
0.013693539023368
0.013571121234628
0.0136991821383435
0.0144747375459923
0.0148258828750695
0.0137265407353047
0.0131145231793877
0.0138159924910783
0.0146796898594684
0.0148406911100559
0.0147277560308763
0.0148914435348558
0.0152191814346456
0.0150897855635931
0.0148592248541478
0.0149838913466851
0.0157054943171257
0.0157313997430191
0.014835022400463
0.0146609272342106
0.0154873198671297
0.0157399158534383
0.0153401083571633
0.0150545325935884
0.015084171286772
0.0148920454803716
0.0146951043068642
0.0148664130960716
0.015060332387171
0.0155780894761308
0.0158180977317015
0.015364193970917
0.015477247728169
0.0157917031784033
0.0155100735747328
0.0155139555179656
0.0161906247989928
0.0160438818925276
0.0154075965741051
0.0153604949257602
0.0155163346388905
0.0156782949413967
0.015848929087178
0.0155322660470811
0.0151561349937457
0.0150792899209245
0.0152190839303615
0.0153308454003768
0.0153407836768028
0.0156669036271579
0.016013491759539
0.0158292601708781
0.0154596278234699
0.015277619087712
0.0156431361946631
0.0160385913997211
0.0160862725849664
0.0159588752573713
0.0156412187441827
0.0156840145602684
0.0161775810133617
0.0162713850791634
0.015853414105111
0.0158507124531983
0.0165390354106144
0.0166208075329704
0.0160596200224145
0.0160416240274392
0.0161818269866605
0.0162433428063782
0.0163916367821773
0.0162910880652821
0.0161878271594061
0.0161774754671236
0.0163788797363231
0.0167780087640299
0.0168598746308794
0.0166607747317919
0.0165779030341004
0.0168628722562951
0.0171963657186591
0.0168393009945145
0.0164394592424146
0.0166867117456251
0.0170177385368923
0.0173586033601711
0.017630016537072
0.0174979344248818
0.017625343123904
0.0178820024174492
0.0178924455418382
0.0181931960787679
0.0184572479891748
0.0185139076081514
0.01886983304734
0.0195940508922041
0.020161442689785
0.0206502357860273
0.0212014882056857
0.0214438402832943
0.0218924257246277
0.0225168143645877
0.0223697092770771
0.0224963485736053
0.022951208812501
0.0233561340137021
0.0238509854731763
0.0244287942891476
0.0248698027135896
0.0254674236727793
0.0263176568173924
0.0270109225023939
0.0277428765490789
0.0290146432354747
0.0307050102676313
0.0326133697318784
0.0347758847121085
0.037819429207401
0.0413743945288204
0.0451686513000957
0.0495207414558892
0.0537603781912449
0.0584988299298918
0.0635153197672726
0.0687643550585952
0.0743352350025808
0.0799662710993541
0.0854695536158171
0.0910176159543086
0.0971001563922051
0.10362260691885
0.110971880744184
0.11848029445674
0.12662674289248
0.134896571849556
0.14324901142345
0.152012919884827
0.161107943927089
0.170180559497506
0.179227283607187
0.187789779309092
0.196022501181956
0.20414958530302
0.212452292052595
0.220090286452594
0.223241730521432
0.225495323901687
0.231469158836618
0.235945583477622
0.237103271994764
0.238768057708092
0.241636840839254
0.244776243918641
0.24907911708306
0.250764962327812
0.246479730556639
0.244399079316654
0.244359952448646
0.242578020437409
0.238493103711867
0.234108656110006
0.22592343154885
0.215737396504499
0.210880318722351
0.20587837031877
0.193326346447261
0.183285735683969
0.177720913634633
0.171823496884281
0.165083267946119
0.158583854187582
0.152881218201717
0.147413052490025
0.14284487664912
0.139220401754055
0.136233540670387
0.133491534903487
0.130922039192261
0.128937561828969
0.127600937857364
0.12654056335703
0.125918461614457
0.125823704044599
0.126522609508031
0.12797118931909
0.130690602331499
0.132838952536446
0.132439056416084
0.134548218141709
0.139339126729311
0.142664377555729
0.145516527284449
0.149982201946586
0.1550340691121
0.161699487553835
0.168996839675021
0.169602932663389
0.172092978731183
0.177973234296706
0.183980962225685
0.190009040927023
0.195120252122309
0.20037116685143
0.205651057520532
0.209801816083665
0.212905061794494
0.208889386810339
0.206232524509066
0.209948337888658
0.21177292346145
0.208702520040485
0.208474017733993
0.209148902959064
0.207737636891956
0.205834649016616
0.205846284219911
0.201199527792323
0.197932219035701
0.197305108205638
0.194507582353073
0.192943517300137
0.191207369945582
0.191415779280424
0.191274949736486
0.175843565721784
0.163717706204352
0.161940898893474
0.161637544486524
0.159422246452627
0.152298777066866
0.143177599002875
0.140118837650194
0.139120979549228
0.132794584338555
0.125234843032365
0.120212271221635
0.117911828853223
0.116408860637244
0.114901910861945
0.115075660494499
0.116341757995151
0.118120945745078
0.118496130005862
0.11825921768568
0.122075676065684
0.127138689711867
0.12964974707642
0.12943985517065
0.132223369362485
0.137953432134051
0.141142501139721
0.137002197297269
0.136628171604635
0.139057979358396
0.141181755689626
0.141517455926909
0.139866270872977
0.139114659250148
0.138673774951761
0.138227230690282
0.139413278269734
0.138412547037792
0.132360617360349
0.129992095165044
0.12985250964952
0.128452831771566
0.126870917034046
0.127234636088859
0.127546224596169
0.128273661695137
0.130379040435805
0.128824049454909
0.126992582731845
0.128016854529411
0.129670790673552
0.130794412947904
0.131766694550952
0.133687842958753
0.135338251351355
0.136230363671899
0.138324338842469
0.140551528922513
0.141159810960238
0.142375733460075
0.142136855927544
0.141765233400493
0.143506665590576
0.145489247454975
0.144911057935622
0.143850899371965
0.143996340444491
0.143884348313698
0.14324274879428
0.142339457988225
0.141452832381872
0.138688146046484
0.13591493379101
0.134593719088324
0.132823825847372
0.131028233078559
0.129742288554402
0.126844650562281
0.123269290333278
0.121523412299225
0.121095439245696
0.120855658052181
0.120527926668219
0.120698865646378
0.121200076769839
0.121696877541002
0.122367903026966
0.122992460012873
0.123893104438833
0.124169931657717
0.122957808530428
0.121839941832957
0.121296063693792
0.120735070082144
0.119755804175791
0.118877156770012
0.118270568417458
0.117982117928782
0.117900066225601
0.118078301659794
0.118584404578463
0.11906459531584
0.119562971218324
0.12002494473729
0.1202367065635
0.12030324387382
0.120322794325738
0.120138409901202
0.119774219274926
0.119421558222883
0.11911986241399
0.118926596558792
0.118721859669167
0.118583749747324
0.118447493168526
0.118330934764376
0.118454362426483
0.118703815722265
0.118884332699663
0.119045149950945
0.119129162954401
0.119073454061202
0.118865491922376
0.118758159993739
0.118801272711333
0.118768660495991
0.11881385320616
0.119082441359252
0.119455968851735
0.120046221286169
0.120732345953707
0.121518499010032
0.122541539123666
0.123851145146014
0.125295367649117
0.126930221408394
0.128662813500997
0.130551578488237
0.132532998013961
0.134591920240978
0.136798913291216
0.138966851971504
0.140961697945302
0.142839594704417
0.144414765780833
0.145669809691306
0.146484462202492
0.146883516492528
0.146854857985053
0.146317441446289
0.145228699003758
0.143738820314036
0.142164918123226
0.140412993882878
0.138332113784459
0.136070542624989
0.134076813439294
0.132385632245084
0.130840900627652
0.129763667501201
0.1291076871295
0.128493094046539
0.127630498565757
0.126475298534415
0.125124963401041
0.123699222469697
0.121961064413616
0.120118433670158
0.118447665979914
0.117025917841238
0.115798243054893
0.11478247255097
0.114077190559739
0.113658160233152
0.113755302714689
0.114605079989655
0.115998050759647
0.117988291658941
0.120495951554311
0.123290026325669
0.126107551171067
0.12861806413704
0.130939737940909
0.133209365602556
0.135312431605806
0.13714169863498
0.138826143646596
0.140605640996312
0.142443363026621
0.144435958420947
0.146380320776486
0.147838856965604
0.148979431964432
0.149866797071769
0.150513104352294
0.151213564680972
0.151995502260769
0.152859458683069
0.154155675908779
0.155941415803115
0.157990185396714
0.160149397221323
0.162596683412287
0.165288468316078
0.168032044625285
0.170785115730826
0.173383375364088
0.176011857903436
0.178669147450348
0.181029320749434
0.183235494419092
0.185315694270136
0.187451882846231
0.18968284862149
0.192094700090831
0.194830448066883
0.197718852172467
0.200825132841217
0.204128072441704
0.207675182128041
0.211543266218791
0.215954855714129
0.220962149029547
0.22658680892965
0.232698200908272
0.239111037586692
0.245566569292286
0.25179510910526
0.257501592345757
0.262322874225358
0.266104857457274
0.269048760835895
0.271555327615834
0.273794009906664
0.276204947176756
0.279016897871646
0.282060989587859
0.285335487839947
0.288696291451785
0.292354981914389
0.296032340296761
0.299742158878428
0.303331093897802
0.306662070999172
0.31012760206972
0.313836175040099
0.317466153207274
0.321272841895643
0.325442556831064
0.329821200664613
0.334387573078163
0.339174043221349
0.343807130831959
0.348027803845308
0.351523775425808
0.353957470204217
0.354966416047769
0.35476193505219
0.35345081308224
0.351164013792482
0.348061703534119
0.344400567302621
0.340112470810203
0.335545501880196
0.330832731010475
0.326245722142591
0.32176342855558
0.317112714692966
0.312111370960638
0.306817134200219
0.301503247855519
0.29625695693103
0.290866348902676
0.285228970876158
0.279827966548718
0.27476997856971
0.269722005436694
0.264818225813727
0.260240979380374
0.255866130055076
0.2516409586952
0.247670374037582
0.243528241489312
0.239589150281358
0.235807714911328
0.23220431306656
0.228858343487875
0.225428780807469
0.221801893192955
0.217866006339742
0.213632995413448
0.208708147354526
0.203194565954078
0.197534403363361
0.191990202583785
0.186735688452224
0.18163195083162
0.177118767687334
0.173570706892762
0.170251491444661
0.166980929102478
0.164529812632646
0.16268342447505
0.161188221721072
0.159882982285766
0.158534260585935
0.157613225616437
0.156813548003813
0.155625663886772
0.154314722054801
0.153100745970157
0.151981359733011
0.15103777556028
0.150274498848486
0.149731741894712
0.149466636169772
0.149097068600542
0.148297675234419
0.147301571508402
0.145878109068565
0.144038105968688
0.141923383207102
0.139396063165457
0.137113857788695
0.135363196085043
0.133444256404894
0.131598198962431
0.130101213129082
0.129190336554885
0.128510438894898
0.127303428391727
0.126188965988335
0.12575745348821
0.125403452315277
0.125326611238162
0.125319042386667
0.125101232403497
0.124957706213119
0.124866294046449
0.124309572745278
0.122820075492472
0.121248911939728
0.11990179730316
0.118394946163628
0.117084241150462
0.116001239156358
0.114886750409203
0.11399273841129
0.113413021372491
0.113110280472987
0.112921411026021
0.112627001942851
0.112536755922106
0.112453920196831
0.112327932517103
0.112783401306666
0.113777557176665
0.114936065440376
0.115941287661483
0.117258656964376
0.118991555420166
0.121010451534107
0.122939807444897
0.124029072763449
0.124895190815019
0.125693365429022
0.125980377387694
0.126265100374057
0.127249438322944
0.128060497545639
0.128877691725642
0.129755725339461
0.130765281240886
0.132223971410005
0.134249620524484
0.136498067055475
0.139306202614423
0.143213349877383
0.147122617765069
0.150191793122875
0.151198576901788
0.150564153732947
0.150311073834552
0.149813561616532
0.149134573591267
0.149278599566228
0.150156345320646
0.15156178177346
0.153402787767049
0.155213298543565
0.156210650431195
0.156793315732452
0.156888353285711
0.15663475343889
0.156778997341372
0.156607771927976
0.156236400924239
0.156635063394624
0.158383208155181
0.159800895019522
0.160185885867171
0.161026424296643
0.162641528935587
0.163108746208854
0.163100431810725
0.164239715981651
0.165810167494144
0.166443679257851
0.166511579170252
0.167785985282768
0.169491190860012
0.17006475707386
0.170049315733117
0.169457791610607
0.169389732195963
0.169958872696008
0.170729373854557
0.172153912976005
0.173523546325155
0.17489683908148
0.17655177567786
0.178440316218864
0.181053334543572
0.182120277207087
0.182987485684215
0.18512514385325
0.186871717072935
0.188057888274474
0.189813943647519
0.192513178180844
0.196951834220077
0.202264520050658
0.205365302325313
0.207324600041585
0.210809711923494
0.214424038548582
0.215162716831779
0.213447736118872
0.212423552420494
0.213667141571182
0.216510627443174
0.217517638014753
0.216676410288217
0.216893693416773
0.219399116674175
0.222309725995952
0.224258717539814
0.225361471133569
0.226833383841982
0.227208606302632
0.225260603561762
0.228256901730928
0.229987983235348
0.22861900554994
0.231022056757
0.233415551506257
0.234146390353647
0.236276578233437
0.239620013458667
0.239898833231828
