1798
3999.43349933624
650.420452594757
1
2
4
0.00109554686453493
0.00152627393202669
0.00155241467632231
0.00161194880446843
0.00160025025787938
0.00150270013526686
0.00164702500184719
0.00187988345836234
0.00184952944864979
0.00180629576150963
0.00179754796250603
0.00165004667239693
0.00154314802102262
0.00142157289427201
0.00138779653024578
0.00143792135818467
0.00125925948413388
0.00108186233326
0.00160864902382986
0.00188635333909338
0.00153040232841
0.0012970838390856
0.00124037691317671
0.00142574309935657
0.00149417067208762
0.00152225928480537
0.00195431194950405
0.00221683942669858
0.00151983075670905
0.000956062819350885
0.00171648194989036
0.0023401390355587
0.00196969578688617
0.00161727953984542
0.00157364186037039
0.00157806814841591
0.00168533521280713
0.00168623890000096
0.00150546035218345
0.00153571130664269
0.00169952717440178
0.0018558380099183
0.00221989341488215
0.0022507191878087
0.00163271342270367
0.00111318344822293
0.00116898616680338
0.00142138871926446
0.00171231309375176
0.00218603792978103
0.0022985635466853
0.00150669779842123
0.00122003983836993
0.00155122132742139
0.00150918262143121
0.0015360171505888
0.00144146075041156
0.00125491132955087
0.00144375595828722
0.00187718890251402
0.00197911742820704
0.00131312165677316
0.00104187935932389
0.0018490474249445
0.00221125389630832
0.00173988724257979
0.00119749755544294
0.00133721404379257
0.00202787042838815
0.00140088702443968
0.000934994585315171
0.0013944420973354
0.00140762331206822
0.00135013974450768
0.00176898785048331
0.00212706502347054
0.00180113965870555
0.00199078398259635
0.00186798665078402
0.000801482218606597
0.000617906896526257
0.000737172451337593
0.000597794889247792
0.000656452813761098
0.00116560009962599
0.00123662726643035
0.000829783197485738
0.00141196561580966
0.00225249159578863
0.00189055245057778
0.00166253769609456
0.00188732357177738
0.00131081110694205
0.00115072591523344
0.00179675703230409
0.0020682981711762
0.00155924594544932
0.000874549305152611
0.00104710273276556
0.00153880772451508
0.00151664143023371
0.00133282283123483
0.00160915335925508
0.00163416364222101
0.0012029376673654
0.0013534412839229
0.00160788079729942
0.00156715911796436
0.00153185017055358
0.00177636920001555
0.00176004597713255
0.0014990920376565
0.00190794595055708
0.00212206968069414
0.00172955592408099
0.00124805564152841
0.00117964610862038
0.00149017545781448
0.00157595439955528
0.0014983148305737
0.00161818372753945
0.00180209231711923
0.00183751921974683
0.00126397586873991
0.00150914725297438
0.00191277250434378
0.00155319329142143
0.00118437647955592
0.00112695570946174
0.00123136134033497
0.000934955603572934
0.00130068491133592
0.00216789094479556
0.00273033543848786
0.00208915482788987
0.0017269357406302
0.00193701128308066
0.00135892933610341
0.00100074932208287
0.00143588002858966
0.00208859315224674
0.00175423037710897
0.000845635702516692
0.000954017772841136
0.00118785645140959
0.000826481292109762
0.00108868858086517
0.00206737286738693
0.00200655636896602
0.00153520063573224
0.00188446910907135
0.00182243843697599
0.00172570732325387
0.00206823626208811
0.00181529594082016
0.00143770331398801
0.00231974551301466
0.00296203370246111
0.00251054817520981
0.00211809382534852
0.00294435424922562
0.00329735181110329
0.00347636791315249
0.00417095686038579
0.00445721101123447
0.00466753070276645
0.00445947537162354
0.0040955691000862
0.00404492199455057
0.00371007060678465
0.00337174523972805
0.00316653291911034
0.0033638898453501
0.00340938176453385
0.00297215045495124
0.00368306990010651
0.00382880162634935
0.00310866082737223
0.00368150034740547
0.00411192391129858
0.00473480037508286
0.00487319257735188
0.00465883371295439
0.00449446956370284
0.0042106694464102
0.00473342972353428
0.00533390107766977
0.00505885217361146
0.00565566109804087
0.00625743437440659
0.00527499338690013
0.00578656949902941
0.00696715359010742
0.00681471810743956
0.00628119828023976
0.00600271804607255
0.00609508017877883
0.00696013300973976
0.00710691029244122
0.00681592315406304
0.00711850311039113
0.0072480933712741
0.00743946250248204
0.00774714191574538
0.00800720249547251
0.00801488568672404
0.00787226855816876
0.0075856118864935
0.00743286475378693
0.0075168202279409
0.00726564684929645
0.00702419123506605
0.00682621084263841
0.00686456373846219
0.00721564523357843
0.0072645073869153
0.00745620498866662
0.00765298397023931
0.00705361884348133
0.00660325545554498
0.00630833700068609
0.00634462500198512
0.00678036711460119
0.0072312451807489
0.0078296790515611
0.00758283555894671
0.00724242586574789
0.00713851917840028
0.0069711604028447
0.00669872739049724
0.00646643940744032
0.00705837899105288
0.00746077051423413
0.0076348838267982
0.00601665023429684
0.0046907768083231
0.00547518564992312
0.00645557867856827
0.0063823621362048
0.00637045380528837
0.00671181386730103
0.00743049443848615
0.00680281815017774
0.00652517105978139
0.00667632159681016
0.0071632044606669
0.00673035508257738
0.00668786324077445
0.00659876452636676
0.00557636864426628
0.00512313256325833
0.00517699227180771
0.00504084790860857
0.00553854813121497
0.00620261919864515
0.00649091144415185
0.00614771140832685
0.00531369672524176
0.0054704660659474
0.00507734429411201
0.00516478027165905
0.00592677587027512
0.00647095521016794
0.00713840222996034
0.00690419873867596
0.00577022020733327
0.00575273323705933
0.00627983261448607
0.00648002025173753
0.00671331124333688
0.00759256799644398
0.00655523207030629
0.00503055980920147
0.00545527229687824
0.00614357792989837
0.00674846841167038
0.00670645947060526
0.00657832397195761
0.00675745468616913
0.00623710155817555
0.00615328552165376
0.00560941235518158
0.00514401614925956
0.00563850664778443
0.0065512002027865
0.00704027174527429
0.00685876976789581
0.00673031134339072
0.00712563547341883
0.00688984742800178
0.00717210229445359
0.00732696575635723
0.00695439360801931
0.00617777065383716
0.00600270585044113
0.00763913065631346
0.00769617995049477
0.00821131210389558
0.00832041060327718
0.0077377795170813
0.00702123996201811
0.00686206704167623
0.0072776371791857
0.00689567241863015
0.00651870357305305
0.00660441545977709
0.0072039609255994
0.00771972026420892
0.00771890794253204
0.00796934447886552
0.00819259511894441
0.00748613338744613
0.00652179701624394
0.00676900328748253
0.00693001766328714
0.00725438630935706
0.00764807156201003
0.00716848165048136
0.0071309224920508
0.00716209095176694
0.00741944117726448
0.00729123967763643
0.00698583515622511
0.00715419599508484
0.00704321561954996
0.00765726847386344
0.00838400401099864
0.0081250155910323
0.0080298004863929
0.00793201143552593
0.00806388357148454
0.00795276363279487
0.00721144431934096
0.00738873355259173
0.0081386012782358
0.00752102500148418
0.00715716537457925
0.00681224402622495
0.00627304681820302
0.00727622284486019
0.00788184103567584
0.00783684447647822
0.00733131098926114
0.00723812699860793
0.00724299404198105
0.00773153217216474
0.00733467566482421
0.00668574513354956
0.00702471209006623
0.00738047385484353
0.00754201685933212
0.00717347863167359
0.00706564167455241
0.00727996054894464
0.00778776933505153
0.00788215458498776
0.00763664895545131
0.00717853267465581
0.00705806912586975
0.00731845773358779
0.00747588543536523
0.00742316925735949
0.00705435215395396
0.00676949588808467
0.00719236025001201
0.00768280974926586
0.00741448728629936
0.00690872772068458
0.00689755254262749
0.00750065977748171
0.00711927891986943
0.00686950148502062
0.00716249700030329
0.00758342715734701
0.00755310497880471
0.00692513657618648
0.00655815364849341
0.00681372617093413
0.0070218291955738
0.00699255714538266
0.0068743394372692
0.00655773825123516
0.006581340219356
0.00693346028375243
0.00729336482606572
0.00764650336009659
0.00712926461189821
0.00609939933737826
0.00585200716762756
0.00630252949559753
0.00681979471975329
0.0074962280325747
0.00734055390111627
0.00728064543714038
0.00790899654965106
0.0074769557353169
0.00637824252017084
0.00620055197841072
0.00683986551017198
0.00658979362008241
0.00611906697668497
0.00643353649056891
0.00658365043383108
0.00704693272779905
0.00700963601418646
0.00639495235904979
0.00678413932490163
0.00695376133159983
0.0061904976700863
0.00598778746506106
0.00645703638234812
0.00674535408878229
0.00630845886264238
0.00601964604332812
0.00598619696398349
0.00618188817544359
0.00607852603250672
0.00595033985503154
0.00588591454166033
0.00567860365848911
0.00611579721104977
0.00641822928483864
0.00618284797976579
0.00595440045034198
0.00611827794456048
0.0059922425526145
0.00586556029753472
0.00581061368705688
0.00555073248806798
0.00581200621606398
0.00587217903496798
0.00562318483154535
0.00569588016051244
0.00550732280211607
0.00528600309484634
0.00569763808779373
0.00635916913277911
0.0056629161645565
0.00468774365039198
0.00505633223423739
0.00574378126924097
0.0057215062111421
0.00548003259579787
0.0053727968084338
0.00564617903058647
0.00553262492880481
0.00484941404344066
0.00468126793102462
0.00513898087068577
0.00525141581887984
0.00491505150971723
0.00519797662566226
0.005622183348414
0.00529829005178043
0.00498806252048346
0.00493264689184495
0.00487902624459493
0.00531331172718142
0.00568203763189246
0.00546870180730567
0.00502884165497606
0.00485266650099758
0.00497805012360608
0.00499648217955021
0.00494957467312319
0.00468843482293598
0.00479562719074453
0.00500289930777813
0.00507281712387005
0.00503008607357051
0.00450469640637367
0.00412736819633129
0.00435793657097043
0.00465685429470044
0.00454221906214604
0.00436735227619866
0.0044078317795806
0.00470991135599127
0.00508650319465271
0.00484982676094911
0.00416281341836919
0.0039844066897654
0.00432595612566193
0.00479344851080765
0.00500610720870424
0.00514363354529401
0.00505145057760559
0.00437149933401645
0.00409445561804804
0.00432723505328154
0.00472192937744988
0.00484709162172891
0.00451114740569309
0.00402668069875632
0.00405827565486286
0.00420567912968018
0.00438451982930192
0.00445144156573753
0.00421686003283804
0.00452218886400808
0.00480869854034965
0.00468415521516481
0.00467684488592406
0.00453366447765684
0.0042726003103639
0.00409877576766936
0.00405845818157164
0.00449147500259262
0.00483169608064066
0.0045448571598048
0.00416738266404272
0.00413788930171628
0.00432427203662921
0.00422708464007058
0.00438813247709317
0.00474833264678099
0.00490979494515809
0.00470770588145904
0.0045484305071888
0.00450960711269834
0.00448844278289048
0.0045156679815348
0.00447119404695658
0.00424381333716679
0.004000544531581
0.00424218116132438
0.00445598798276971
0.00458886824782135
0.00485853114424361
0.00488177842739807
0.00470330175157887
0.00471569789826221
0.00472918326330856
0.00449061097694801
0.0045065114937062
0.00491171826702092
0.00511921077006714
0.00508071129630819
0.00494438701060215
0.00497461576683821
0.00532028710145924
0.00535673252549322
0.00536285349964328
0.00554609792904989
0.00570411445874034
0.0060345957372993
0.0063148446030404
0.00665146726140392
0.0070575076940925
0.00720042996792037
0.00740352063146243
0.00811577096561317
0.00871402546230496
0.00884568259996052
0.00933184369178312
0.0104820527353072
0.0118155325307107
0.0128014034317032
0.0134953308306959
0.0139981998102235
0.0146327755252781
0.0153254312537866
0.0157054615257374
0.015948957288886
0.0162919584609002
0.0172709068714173
0.0187441952865101
0.0205196894183089
0.0229789908602101
0.0259408152858138
0.029129123976372
0.0330394030193764
0.0373274085860934
0.0419085295631838
0.0475826805229581
0.0538717211231183
0.0604353092067042
0.0682011059404311
0.0769274042386327
0.0864575002859879
0.0965889278037524
0.105105893113572
0.110369739724491
0.11166175776842
0.109085810972124
0.104357991696658
0.0988488218721841
0.0934281953552514
0.0886554814554616
0.0843935687452631
0.0801054453227763
0.0760893939603609
0.0729389668406925
0.0702788910573489
0.067644318329166
0.0646287604384239
0.0615357883978788
0.0586794973788643
0.0557319625825549
0.0525351495354552
0.0494273978474266
0.04642811735592
0.0432945921602882
0.0403711665068072
0.037916958008542
0.0361655629891645
0.0347726808223073
0.033493188984757
0.0326691638034168
0.0324646258798746
0.0331196884183452
0.0350720747363967
0.0386650447368989
0.0443926197153513
0.0531757814610857
0.0655518444800634
0.0808643856912378
0.0961525779891502
0.106563800156121
0.10916795962304
0.104935623840506
0.0962488866832556
0.0858901757458304
0.076022684103576
0.0672940450321877
0.0595818318807095
0.0528791637541162
0.0476069424880385
0.0435081522884809
0.0401119077118513
0.0374176492416256
0.0350488709171191
0.0328450723868345
0.0311332395431145
0.0294654609006922
0.0278668314855822
0.0267740838727101
0.0257467367459261
0.0245229095828714
0.0234601817594372
0.0228426243300531
0.0222432542867871
0.0213661359081692
0.0201966116666079
0.019133943766372
0.0184124237203802
0.0179711267689941
0.017772036463724
0.0174151014867913
0.0166910833529961
0.0159977713519655
0.0154225917692172
0.0150438864348969
0.0148331484244021
0.0143916826516193
0.0139269516582676
0.0138046138193342
0.0135149572485711
0.0130544334793779
0.0129743870210271
0.0127086843837963
0.012049230207191
0.0117732700259836
0.0116552996920856
0.0111316780404854
0.0109377011811127
0.010977802814492
0.0106739185487052
0.0103013647218249
0.0102586240714577
0.0104414703824954
0.0102164148329021
0.0100074525587674
0.00997156424905322
0.0098538656064527
0.00980381068314548
0.00970825332370078
0.00947075562813933
0.00936025939854719
0.00949365467962331
0.00958811960232213
0.00967025905418626
0.00958419904466339
0.00907755111403507
0.00880012948088047
0.00878926807063859
0.00873855972821933
0.00878145641686269
0.00887436959579328
0.00865890002708307
0.00840422784194546
0.00845850235574589
0.00849209632237931
0.00839056684937898
0.0081244403434505
0.00788929589593013
0.00786213629751926
0.00785814790777255
0.00799504908105961
0.00811098812753323
0.00792462436259683
0.00786130106204642
0.00785069992862276
0.00774840065213241
0.00783520511281664
0.00776475460611525
0.0076636284911576
0.00767635625064496
0.00752704026681457
0.00745392674738018
0.0076038614335111
0.0077210418544172
0.00777880899884479
0.00775331486662292
0.00769573503439615
0.00781258503882593
0.00771628153445732
0.00750157539344828
0.00775964072737702
0.00801126686504658
0.00813556388985438
0.00807517087063947
0.00785743651484455
0.00773089570662897
0.00791280838788263
0.00826969275051544
0.00820594009581355
0.00804834208036884
0.0079600844264083
0.00759806287562212
0.00741277404167757
0.00777122390563962
0.0080892418207843
0.0082262012591809
0.00819670382354881
0.00776081918822259
0.00753185639288856
0.00754926037790676
0.00718560494601697
0.00709496639264635
0.0072361231210235
0.00709309728245639
0.00706786463796326
0.00709997497510822
0.00705486246518243
0.00664146529477842
0.00640821333014163
0.00662024492874705
0.00673715798635082
0.00670047458942913
0.00667169835076744
0.00666706796854591
0.0063971989043662
0.00606929289620175
0.0062319827117251
0.00628538757275818
0.00583409365514408
0.00573397119728093
0.00593609158355242
0.00615084299088942
0.00606147279890832
0.0056850220260078
0.00520517154412973
0.00515393972597179
0.00520412070216897
0.00515296086385682
0.0057635252646598
0.00583709644991956
0.00541728090768779
0.00509301539461633
0.0048559388258463
0.00500446437995752
0.00550642312269899
0.00563324043227145
0.00537423106907168
0.00535712489352982
0.00538473510658402
0.00469317061181619
0.00436872150474086
0.00456583472863474
0.0047089285241629
0.00487051255049166
0.00497623410146067
0.00475678577735634
0.00477324747290838
0.00501097830531964
0.00494457126074609
0.00477764754289537
0.0050068005520462
0.00506050322707901
0.00512449320074169
0.00504777592410682
0.00468107252246615
0.00441757381436889
0.00450648255678867
0.00455967505649258
0.00474858042708929
0.00507003454777061
0.00448174677168447
0.00431722232451998
0.00449146482733747
0.00454531299447665
0.00514993325949216
0.00510037047813592
0.00454425146319977
0.00475654755075225
0.00473387916346174
0.00435755585242277
0.00422882339662695
0.00388506233989672
0.0038183682773442
0.00430239953696991
0.00468290303149555
0.00439588575490733
0.00441205508056672
0.00452124115994888
0.00426015087454175
0.00398990618462354
0.00429684796907644
0.00455155767128263
0.00425015611901355
0.00426448699605528
0.00408363523569384
0.00407674565281953
0.00414454292586856
0.00382078620807928
0.0036581715688825
0.0038080995702108
0.00364394505425025
0.00394746997496985
0.00481490797656171
0.00502111639651495
0.00489976782720726
0.00474083550100836
0.00411578536339977
0.00387283866032258
0.00407457971857832
0.00400651190767511
0.00400465454901831
0.00390886246203889
0.00391132106346367
0.00400728113350101
0.00391442780854257
0.00390532318598445
0.00422560138141761
0.00432751058474308
0.00426601967956231
0.00404907332254632
0.00349642513485908
0.00367994617424824
0.00378049737653824
0.00350514532887002
0.00360839680445373
0.0038022533079892
0.00371673179966398
0.00429849849568161
0.00468798596305103
0.00412638086169462
0.00373548278570821
0.00374498203617845
0.00372416081060268
0.00373457250819469
0.00384066688016255
0.00389203456148152
0.00432847978837321
0.00446163307384382
0.00393912087086935
0.00414850388503545
0.00437616250729078
0.00409716934105223
0.00435305657088933
0.00485000899242038
0.00425999826418917
0.00400041618746461
0.00449173868115549
0.00442133441701951
0.00415835390564646
0.00382186992817545
0.00339165985745734
0.00280438897023879
0.00330438962371994
0.00426594263173489
0.00441669458683574
0.00382619123879436
0.00344012906127585
0.00374622176932624
0.003911976473146
0.00356167276722713
0.00396736506116668
0.00470746377501901
0.00489068189979027
0.0050341691663394
0.00483166591830824
0.00442491683804756
0.00474848250105824
0.00452233054967377
0.00403523625577926
0.0040470730699669
0.00483935299604903
0.00541478736760186
0.00561196020469752
0.00565382889489848
0.00542110768480221
0.00521655381385934
0.0053427723802464
0.00528588436166474
0.00487204345360962
0.00453272265944182
0.00463006020788851
0.00468610609752946
0.00480079603288445
0.00483481385088654
0.00466730078389937
0.00482305275141169
0.00482610803451675
0.00462363635406057
0.0042188547190985
0.00428495865024693
0.00508198532582439
0.00553960935023949
0.00515236388377242
0.00500551474008752
0.00499875316085183
0.00510977228356877
0.00559843936757126
0.00536047479468018
0.00423004579284863
0.00372860225240252
0.00433312754171241
0.00446418191048477
0.00371773366918285
0.00362127065971041
0.00390666338434028
0.00436847623733312
0.00383200306317649
0.00340813101644563
0.0030427608884088
0.00387738903069748
0.00516667456609892
0.00489721589448727
0.00447267596683385
0.00388181276898824
0.00414507947303263
0.00411472309873968
0.00397778968969688
0.00390490059861407
0.00328210151295056
0.00284340786070824
0.00381438201234074
0.00397689038809629
0.00380157631050755
0.00374619461104831
0.00306821777312717
0.00304674015575621
0.00336887632347476
0.00410252365336272
0.00369325813001579
0.00207569420071084
0.00129224636656436
0.00186031338091929
0.00289090707681501
0.00318531468817991
0.00161757519785009
0.00176410209970289
0.00302536357815318
0.00350691559266147
0.00437721611302399
0.00420746589299052
0.00154340643046289
0.000847757884203141
0.00331487503752502
0.00542255263786907
0.004999463022405
0.0023646435861035
0.00105519176506116
-6.06085415965459E-05
-0.00125729256691954
0.000692048895105964
0.00278536349774307
0.00201682795615684
0.00160347571718818
0.00309783462191625
0.00319239583191684
0.00237396606904564
0.00227574664358927
0.00240713328332985
0.00234091950207485
0.00316165688821639
0.0010920099757408
-0.000548797695535434
0.000941462759678686
0.00223162910576704
0.00180529302537807
0.00150356994074767
0.00045798757329674
-0.0011937559191059
-0.00149916381725561
0.000423026462934281
0.00138512974536758
0.00211755717243284
0.00229191424112813
0.00270004652566029
0.00225340651935247
0.00154609453570478
0.00116783464908276
0.00188224675024586
0.00284216838244033
0.00254204176207432
0.00246277642347929
0.00301551190866708
0.00341750554631337
0.0033120989991193
0.00363016775239912
0.00389621331447609
0.00341860931603289
0.00308445863090426
0.00300781722380887
0.00350359128816751
0.00320202009817189
0.00282944297162008
0.003732690590719
0.00358167065827879
0.00245969982507851
0.00237921358847529
0.00354449609954361
0.00433816987028872
0.00348131659805489
0.00322281312595268
0.00352762870408347
0.00349688186110041
0.00377567451880833
0.00381517047676567
0.00336955680134668
0.00325299747656308
0.00306704695905397
0.00337644390131575
0.00372977971589476
0.00318612220457007
0.00277455326794281
0.0029235370419865
0.00338799736657886
0.00333618985436817
0.00384539559636396
0.00413985935944295
0.00297328276342754
0.00229394899560184
0.00317512514028993
0.00341705403832494
0.00231563742455632
0.00186653951023246
0.00275611708200103
0.00379560615360118
0.00501084826992359
0.00350883776255875
0.00117589285200422
0.000586492235926605
0.00268739477577898
0.00410920263922171
0.00222050240028715
0.00179556931564615
0.00277904088869696
0.00174698661199038
0.00256320261589752
0.00254221087297366
0.00152999489597294
0.00280909851828516
0.00297953256805209
0.00293605050194017
0.00341631444363673
0.00428856745142317
0.00445898202816559
0.00317511981226774
0.0028574088027232
0.00280111235377037
0.00410030808388418
0.00483018504378292
0.00301221544881261
0.0024566609314229
0.00361647558357737
0.00396979104804774
0.00244497527311755
0.00157545164197629
0.00177811601302419
0.00211228033198124
0.00346505270670992
0.0047811311149848
0.00599315337696556
0.00603153599491333
0.00491152841364952
0.00384706374344832
0.00318512361040254
0.001750102692074
0.00217970680672398
0.00350753376032399
0.00315590815516107
0.00307092575491073
0.00329651573888688
0.00259277370051647
0.00210432355782746
0.00209331131116759
0.00233379431548797
0.00263026583073276
0.00290585432869229
0.00248623323313077
0.00249760304931346
0.00325194478690642
0.00316208534136579
0.00269256272523212
0.00276974791242779
0.00302441933552935
0.00285294229284129
0.00306235083726976
0.00407233665051692
0.00482185422704377
0.00444026467824991
0.00412255080152373
0.00439738529817569
0.00389526164021486
0.00344543527996934
0.00365239866235032
0.00320057527695155
0.00340137344417919
0.00365965821912587
0.00370064108080335
0.00390171740367442
0.00390930032303288
0.00422153880454487
0.00480128563628362
0.00462088477834052
0.00425087865444653
0.004025570801979
0.00401665089899353
0.00435285550498604
0.00466234858522816
0.00478052769223464
0.00491765494684583
0.00459460548927048
0.0037819524225299
0.00355688059869581
0.00408186912949614
0.00468870176591115
0.00482051122195807
0.00482030120643126
0.0048495540611661
0.00430492959597845
0.00393516138541246
0.00430563118580515
0.00463433013085167
0.00435383005257085
0.00427512193608979
0.00456269278354324
0.00434714360133749
0.00437262046563208
0.00478883270501011
0.00491688611684552
0.00513578729852473
0.00519301499065841
0.00473456841704626
0.00422170112709138
0.00398796160893953
0.00421709961285302
0.00427661919305741
0.00448810320788474
0.00467017519882618
0.00416538401423656
0.00392768824779013
0.00442504749157862
0.00474987636136454
0.00488351630755047
0.00492665100791046
0.00490555089495975
0.00454136509803787
0.00414933919540492
0.00434908164362044
0.00467483483522363
0.00457016604027353
0.00460999127467829
0.00491153187424817
0.00516362652419243
0.00516810449980766
0.00501303503194251
0.00513012442340897
0.00537397460792365
0.00567156655378691
0.00583884615399552
0.00550214599196028
0.00505679454164232
0.00493999499869471
0.00491815919716724
0.0050499000841354
0.00531606785198425
0.00534871249148973
0.00530107368212035
0.00531197142267895
0.00547144847008646
0.00539741029612956
0.00521894901155037
0.00518353729787882
0.00502072083091226
0.00511912197194431
0.00552114932836539
0.00552516343968875
0.00546622530638085
0.00564757168303084
0.0056175322713573
0.00573980802527482
0.00591004070986091
0.00576867144063297
0.00584513327333157
0.00576865222916209
0.00557050863245399
0.00588808246162716
0.00632990357504744
0.00630990703030477
0.00643920625126163
0.0067036737342959
0.00651186739241455
0.00629489915291451
0.00612121539033649
0.00621481193903575
0.00658848122840964
0.00687179676085503
0.00726141637782988
0.00806584248651096
0.00874931152410744
0.00843966560636604
0.00770234799013119
0.00741732250612863
0.00741195436560914
0.00754954018552883
0.00793729218017018
0.0078170621551718
0.00799419868615865
0.00879689576719567
0.0083493188369276
0.00786850316084835
0.00778139737335647
0.00754539855957649
0.00762333970528205
0.00770269876871943
0.00799074109368623
0.00878629757681169
0.00926261147768761
0.00871009999830732
0.00820918328258789
0.00807146029969137
0.0086489926931
0.00912483543241587
0.00912682742893923
0.00948209800226247
0.00967320018195362
0.00937577577488222
0.00939795997453431
0.00970205597493514
0.00985698709003487
0.00996361359421548
0.010015508225954
0.0104015893107259
0.0115048002505175
0.0115917540459943
0.0102540036851217
0.0102548051921753
0.0106448448569392
0.0105775252874881
0.0104405938968364
0.0105126658474097
0.010701437982504
0.0111665152232762
0.0114885071083537
0.0107571191765288
0.0103171716818656
0.0104078964749796
0.0103662492842651
0.0103087464968293
0.0106011475668405
0.0104580946093021
0.0100497692420114
0.0102033433377512
0.0104591688093283
0.00981429165839407
0.00932528957105414
0.00934227180851497
0.00920037506452332
0.0090024948781767
0.00911454531747014
0.00935212826393154
0.00925487483440695
0.00932805898331346
0.00949825757370339
0.00942448561780647
0.00914070250952506
0.00888012897627865
0.00891144609607909
0.00906529474146602
0.00899188402630263
0.00901805572725901
0.00898924360711594
0.00889892793097392
0.00903757196469804
0.00946291045195509
0.00955903446290279
0.00887246142942797
0.00881945344476936
0.00918410548959906
0.0090198490491952
0.00879840406331217
0.0087855688211479
0.00886315306552903
0.00970764800382961
0.0108160192047391
0.00981481356493614
0.00893003491418874
0.00870411771666001
0.0086710510216014
0.00894166907389393
0.00923482273163055
0.00963216713885575
0.00983362629425026
0.0101518233681563
0.0106317058136476
0.00980759328419825
0.00919021259671799
0.009478850639347
0.00974990104819493
0.00957275748294696
0.00970467881121254
0.0102302938955431
0.0106944094061909
0.0110259479375887
0.0114506586785101
0.0110124036757922
0.0107061516171694
0.0109557095646272
0.0112035732032193
0.011455125427126
0.0117413524642807
0.012362194326873
0.0129989806976803
0.0121593233253876
0.0115910715380649
0.0118312938994478
0.0124472033364947
0.0131097597777826
0.0132609982832398
0.0130849543108238
0.013490879175766
0.0139840902885003
0.0141062749567929
0.0140410987421937
0.0140160070935903
0.0141558644593274
0.0144102385133504
0.0148312749700778
0.0160234241447636
0.0209265103730206
0.0323260757104343
0.0451961294089477
0.0514002105018323
0.0542914994194819
0.0564481566504611
0.0577204468738194
0.0581428681343817
0.0563353540947498
0.0532027303866453
0.0486477371974399
0.0416261540194796
0.0380007608863803
0.0356071828753514
0.0338799000232576
0.0323843749836909
0.0306697648900096
0.0296684901868059
0.0290288055852968
0.0286656225286137
0.0290536620333608
0.0286834114725669
0.0267633819011952
0.0258919677301647
0.0254347226274589
0.0243948821727578
0.0231570156229426
0.0225714082839707
0.022035147124935
0.0215542394956846
0.0214658110471941
0.0206240500150029
0.0196321432230954
0.0191409106445821
0.0190700307531079
0.0188696934136197
0.0184600609952611
0.0180434585596155
0.0176396687704056
0.0172523298790048
0.0172264474080605
0.017246253064658
0.0169324438358149
0.0166863447138473
0.0159780400135744
0.0152179090308757
0.0150909944787869
0.0152447256056465
0.0148624555002043
0.0144979694900503
0.0147616294561977
0.0155713963994619
0.0168492075012045
0.0178447428990827
0.018051828708148
0.0172728121815628
0.0165981819631449
0.0165724299485381
0.0165310794920207
0.0163811092339489
0.0161404764447185
0.0154889782440353
0.0147662784847709
0.014388662010298
0.0144142355470314
0.0145047059839534
0.0144103953057812
0.0142211389896032
0.0140812394567767
0.013942392951168
0.0137634714208712
0.0137165632777742
0.0137146682948976
0.0135322289927264
0.0131687841640327
0.0128591615974292
0.0125818766113469
0.0123764856993377
0.0121106397733533
0.0120333167393628
0.0120734166414472
0.0120330824500651
0.0120925783357939
0.012233933895236
0.0121565677735783
0.0120967057131107
0.0122794350404322
0.0123450849453626
0.0124653323721933
0.0127278937275357
0.0128927395907912
0.0128610603264514
0.0128399469387241
0.01288102243178
0.0129350233412971
0.0129368114309177
0.0128898958767002
0.012830818906405
0.0127183155367693
0.0127201059852332
0.0127945325229053
0.0126767971735992
0.0124708541183226
0.0123073382870357
0.0121831961307766
0.0122274625722246
0.0123807776101478
0.0123574884589193
0.0122933543206649
0.0123336734969179
0.0124498122009323
0.0124093209765642
0.0122876541707333
0.0122549313985612
0.0122332247966963
0.0122429285328649
0.012242102810743
0.0122148366575693
0.012237072884971
0.0122634698635515
0.0122815008500719
0.0122979351360712
0.0122634321421509
0.0123531925456551
0.0124722658070951
0.0124457500446833
0.0124070914846045
0.0124827618698097
0.0126375553871339
0.0125713441205527
0.0125147924851306
0.0126076607311356
0.0126420961071286
0.0127065979384324
0.0127631461206115
0.0127782330135794
0.0128787827356003
0.0130709556663331
0.0132815849402674
0.0134196342862091
0.0136126670426371
0.0138064099486454
0.0138274309714084
0.013959287046646
0.014313689929912
0.0145709399334889
0.0147391492985869
0.0150185588679225
0.0152981620390405
0.0156196596876614
0.0159753294253034
0.0163474516853869
0.0166635903436046
0.01689152589725
0.017238089068769
0.0175943575102301
0.0177911990991364
0.0180423619650613
0.0185926146471594
0.0190663195348919
0.0193522730607732
0.0196773189870818
0.0201034420813643
0.0205360229220234
0.0208112699719306
0.0212242799439246
0.0217801291849983
0.0221554066806301
0.0223249558402921
0.0224609220858981
0.0225247546585386
0.0225976936177781
0.0227379740999809
0.0231507575855684
0.0237294274269292
0.024251141105491
0.02477687677692
0.0252365146812908
0.0257365029165708
0.0262919557798536
0.0268564100737509
0.0274787843867932
0.0280397388789824
0.0286288096157578
0.0292746027085311
0.0298758504356497
0.0305758271524654
0.0313544586628718
0.03206515101575
0.032858235483306
0.0337285214292685
0.0346138267314042
0.0355933682946821
0.0365336305776293
0.0373387756037821
0.0380534743463533
0.0387923053285363
0.0396173438902607
0.0403973215305146
0.0410536690939617
0.0417000254336347
0.0423307230597138
0.042885403227422
0.043337667152566
0.0439893442004096
0.0447890544377749
0.0454089546466064
0.0459817891256028
0.0465956113254468
0.0473222629658736
0.047920667586287
0.0484893541941331
0.049149912290234
0.0497066454643539
0.0502590387620947
0.0508722258554409
0.0515971291608738
0.0522429879485882
0.0529939052773317
0.0540022008767626
0.0550125741742491
0.0559749203539919
0.0569502455271039
0.0579129195159167
0.0587706348426634
0.059686570179544
0.0607986704967987
0.0619408187698229
0.0631333905498233
0.0642900641556902
0.0656546858516563
0.0670881507198026
0.0682186116657263
0.0694096265327103
0.0706153235134159
0.0718940569057559
0.0731938331474658
0.0742644686170478
0.0750942428433606
0.0758003322196215
0.0763547089738371
0.0765007331879058
0.0764412009135857
0.0765100499729426
0.076580415255096
0.0764369354140521
0.0763674076694967
0.0764769732310903
0.0766612940920449
0.0767145984401261
0.0766633275655955
0.0765657163841798
0.0762403303192448
0.0757517317077007
0.0751044348767662
0.0743596738774041
0.0733501098024634
0.0722683285383469
0.0713049605674662
0.0703812247430703
0.0692913928509755
0.0681443223568777
0.0670737775340789
0.065779799281248
0.0645121179757739
0.0634158369911625
0.0620886576692045
0.0604608497888094
0.0589276673025965
0.0576255779512975
0.0562033907762535
0.0548886562070729
0.0536980778456961
0.0523930693885747
0.0510189260969951
0.0499204413607077
0.0491239611497437
0.0482156123092809
0.0472172505537396
0.0463961932142839
0.0457155638710916
0.0448310927815392
0.0440301486427556
0.0432898336332912
0.0428651821994145
0.0426800371727945
0.0423036991270927
0.0419101370053557
0.0417871372681792
0.0416742246507848
0.0411999163738895
0.040672851937673
0.0403229780842505
0.0399720994964524
0.0397394263186144
0.0396065191097034
0.0393689730372859
0.0389859456499152
0.0388012001469065
0.0387879830173501
0.0387493129442145
0.0387294534819571
0.0386592388423785
0.0385362497557337
0.038330127040254
0.0377902611342138
0.0369001827010102
0.0356665357718833
0.0347730739651653
0.0343475654401997
0.0337087184445961
0.0330551469057336
0.0325477116820259
0.0321529233081531
0.0315243631876489
0.0310600546418787
0.0310253011894569
0.0307526910974083
0.030445083881072
0.0304407902632968
0.0304177290425281
0.0309857072900765
0.0323112395140424
0.0332952264878367
0.0329848036087755
0.0316156566561316
0.0299443378891776
0.0284776145579156
0.0277730932803456
0.0272308290500726
0.0265986854465982
0.0259512448487808
0.0252705694668482
0.0251022535033666
0.02441542010378
0.0234258797072234
0.0230864593278732
0.0231113976885792
0.0229932249059741
0.0225319152625536
0.0224558509685363
0.0227315366219821
0.022684093074512
0.0225721476406938
0.0225424990028239
0.0224831483418939
0.0226546307392284
0.0227474117246693
0.0229012766030652
0.0229461636441636
0.0226468859556116
0.021922062359214
0.0220583704285573
0.0223807500990806
0.0222361263286224
0.0220440184076391
0.0222812374587947
0.0228271955479518
0.0232895250100848
0.024246402281152
0.0257569172916731
0.0274849095193576
0.0290333503593682
0.0300157785023332
0.0302217610067473
0.0297179618652651
0.0289370644720116
0.028596219723128
0.0284439042984918
0.0282147061106432
0.0283376371812565
0.0289862761064354
0.0295943176159313
0.0302130515169444
0.031166872689548
0.0310700188147097
0.0303041888655358
0.0299431036035763
0.0296379075126728
0.0293483446548548
0.0296120758196046
0.0298742140208533
0.0292099090906035
0.0286695394541182
0.0287309968813232
0.0288760004968959
0.0287397727615139
0.0284892202762395
0.0286991576522381
0.0289150922279282
0.0285560786703447
0.0283937938512676
0.0288220584788184
0.0291621897183973
0.0290493533375468
0.0285924627694317
0.0283487880230497
0.0293931619381501
0.03184759102773
0.0380907172523014
0.0467324686581658
0.0499241645380351
0.0481470458330296
0.047217508145434
0.0514040649902603
0.0627101691360499
0.0749311241865113
0.0778186287805167
0.0706113739333051
0.0600041521211204
0.0506739346019736
0.043753332845274
0.0396122994268834
0.0371754070342029
0.0348734347190319
0.0338456925472242
0.0335150845065814
0.0341919274542029
0.0353654919817123
0.0339793620849406
0.0320981585549008
0.031999348651864
0.0325415104895592
0.0325853269678948
0.03109749900057
0.0299503905439542
0.0305955075482111
0.0304033058098806
0.0298047478472341
0.0302324745616966
0.0299509253854185
0.0297642561437079
0.0301992986239416
0.0303652901247333
0.0280518170923301
0.0268759975008078
0.0289568411127979
0.030097514818274
0.0279970942632552
0.0273939645624876
0.0282747301613609
0.0276628293461247
0.0274002192854784
0.0268458166882412
