1798
3999.43349933624
650.420452594757
1
2
4
0.0063142405542568
0.00584284971913909
0.00548532212949221
0.00511022137464714
0.00514604405850293
0.00569073595778089
0.00623775769352383
0.0064703923066661
0.00674055584523537
0.00628166017962206
0.00580217097236196
0.0058352243445669
0.00614391141436761
0.00652806609490203
0.00586032197362409
0.00535781506194614
0.00577746099291665
0.0061363251144316
0.00588457147428871
0.00578847569955504
0.0056400301663285
0.00576028040332312
0.00603981616328235
0.00603859791337269
0.00645744379836819
0.00610255975974306
0.00545547452883824
0.00596953901381792
0.00645775538352934
0.00563274405968013
0.00501970406083946
0.00564290762494584
0.00553199107785081
0.00524262653035617
0.00625567407668805
0.00650340679316764
0.00548794325571265
0.00516129185987869
0.00498008436840598
0.0048389230346477
0.00534312108348053
0.00560448916786232
0.00592165688579743
0.00638049860172549
0.00647409298115944
0.00611649277667699
0.00571714545006929
0.00562774421068403
0.00537403242627287
0.00573572081458691
0.00678162454510515
0.00699316621264836
0.00658495623019001
0.00602304409797267
0.00580504329351192
0.00588320704215749
0.0064748810334563
0.00673909845985451
0.00587498441348285
0.00568548875878571
0.00608618187718186
0.006010564215441
0.00619025319842385
0.00603025055240677
0.00586010691716936
0.00635749023275113
0.00658214921796795
0.00632547022505154
0.00659661826548523
0.00642839266848671
0.00595137148273859
0.00583575588709051
0.00548183514935905
0.00605324586268078
0.0062101915258888
0.00584303125706331
0.00636340775770032
0.00748225725027509
0.00622653605129559
0.00473695939811232
0.00505956295563667
0.00584227886381476
0.00587968060790576
0.00569345504036923
0.00605252798048708
0.00653144758499924
0.00633001565802885
0.00591774279420919
0.00552484381869312
0.00540211413157863
0.00560519760321738
0.00571386376038216
0.00569159181508518
0.00561745461978664
0.00606741426863424
0.00607232888539992
0.0056902297154541
0.00667213931846728
0.0062655588249044
0.00512302222904309
0.00566664218965717
0.00596522962198234
0.00587162863709641
0.00495807539818064
0.00522172728996694
0.0066776312036857
0.00663151401435016
0.00650837679806968
0.00661291421985815
0.00548833181512421
0.00511554035913517
0.00514613882569822
0.00497440109616462
0.00554607173066226
0.00608767431581899
0.0059516366986329
0.00579188507437903
0.00590595777950565
0.00550268830541148
0.00517928908204258
0.00533137988036706
0.00617944134310008
0.00593814748444335
0.00560178770105917
0.00617984442101242
0.00547109679855589
0.00509998249542388
0.00606844507665867
0.00644000505588028
0.00573648663338643
0.00570464930633056
0.00614107899318629
0.00673146943499692
0.00621515335108096
0.00494919368060488
0.00508739599042292
0.00592994717261261
0.00500520762866672
0.00513430414886301
0.0056337087334899
0.00596027418925194
0.006260380889436
0.00637197668336557
0.00597507189671501
0.00526865586182266
0.00540796061027681
0.00579234140688772
0.005975971014363
0.00580244698803712
0.00565800044798378
0.00557698053372433
0.00560122100844466
0.00622953042639932
0.00652176965075722
0.00631992085360978
0.00649462656277348
0.00633148089518914
0.00613561640578055
0.00716776599128502
0.00809637533978863
0.00860675266569563
0.00886253336833325
0.00883419700261407
0.00943409466331981
0.010136393123942
0.0101593134707698
0.00980338117355517
0.00921520574155522
0.00924684091293122
0.00895762229965678
0.00842778716604163
0.00885550311648003
0.00944956358453519
0.00943096581362164
0.0093266528042735
0.0102766227377426
0.0106696751372757
0.0101032502033263
0.00965370951030716
0.010061565534532
0.0102007540022813
0.0098429539676652
0.0106798569731393
0.01211594733685
0.0124956136259308
0.0129323501150887
0.0136702037812025
0.0141497043720184
0.0138905636895082
0.0136705341508627
0.0140456137242867
0.0143719161400154
0.0144449200975433
0.0148860490584329
0.0153989975632128
0.0154545908909774
0.0161721657470525
0.01765731970132
0.0180535551582912
0.0175418195896947
0.0172842427445611
0.01779702439196
0.0191089620947468
0.0197526819665299
0.0196373392144019
0.0196142837242082
0.0200324868293696
0.0198509677462341
0.0196416434278671
0.0196279299980186
0.0188112151070882
0.0184374182324724
0.0192654895161109
0.0194454365821483
0.0186391488730534
0.0188503547422067
0.0188156209267691
0.0185362782731596
0.0191194599695537
0.0197072421642249
0.0192166979667115
0.0185783587783724
0.0188604339061589
0.0187955817394331
0.0184931821878864
0.0190692164139097
0.0191759945385001
0.017677185971652
0.0170522577244373
0.0171675053536596
0.0173644771599239
0.0185679364036079
0.0189371226501711
0.0181154547134618
0.0178663271026356
0.0178338474396224
0.0177162222896946
0.0179227353699845
0.0176533201854812
0.0179217569602721
0.0187537326191801
0.0183377801458844
0.0181054330521924
0.0179910240452729
0.016781888570896
0.015790990059668
0.0159979366118768
0.0169019377918144
0.0171247943449898
0.0179498763067082
0.0184365158328562
0.0172469524488937
0.0165905356281306
0.0167635234519257
0.01754036457804
0.0167494325720823
0.0158384453978349
0.0171320375272724
0.0164905972057843
0.0157810455731109
0.0169629706386026
0.0174454361131421
0.0169914101672563
0.0164661714264216
0.0163864251460253
0.0167250198586608
0.0165838030039173
0.0174527414591239
0.0175606881891505
0.0165704469393806
0.0161961230629866
0.0161404481370898
0.0157986058580037
0.0148359627477107
0.0148346145453953
0.0159979234868051
0.017376152430943
0.0180208574553029
0.0173359907112455
0.0166242700988357
0.0160813506880776
0.0163488047660869
0.017539977568274
0.0174802462748819
0.0164876945881102
0.0165115200306348
0.0170713165295706
0.0165672602197147
0.0160563474201298
0.0170122479636714
0.0177787257000243
0.0177483798606074
0.0176087998607059
0.0171874265335506
0.0172429892504261
0.0175869007438543
0.0172880369427168
0.0175855739453965
0.0185940180841167
0.0181688671057003
0.0175921324469519
0.0176304799085645
0.0176049163121191
0.0175406668134985
0.0171879216678482
0.017192381107787
0.0178252058570517
0.0182007960682917
0.0179817422859812
0.0177403879874124
0.0181420111863354
0.0183659203331232
0.0175789330129875
0.0171259747756586
0.01805457059373
0.0190049859691497
0.0188219025046252
0.0186916726837687
0.0189295451005873
0.0186433821898897
0.0184859926878575
0.0187868706318514
0.0184886810640673
0.018080835627156
0.0180413907166228
0.0178540593854024
0.0176923923441202
0.0184945961734613
0.0189558962369278
0.017897872046706
0.0171840407458578
0.017953598377396
0.0192667576469579
0.0196191908146357
0.0183304556745847
0.0174028305921234
0.0174692297435832
0.0177743223877954
0.0181215896904103
0.0179119461410452
0.0175564304267425
0.0178839357044587
0.0183837951111137
0.018415165196116
0.0183435640874982
0.0176239599488479
0.0172305517720414
0.0177409565030202
0.0179184973280868
0.0175304294590829
0.0174959971135387
0.0176519525332171
0.0177838276458221
0.0180386686968841
0.0174259623698459
0.0169797851102475
0.0172803486100249
0.0175406547214079
0.0180270427521762
0.0184657300153982
0.0180570346746134
0.0177646833657112
0.0173481516863906
0.0163422619416334
0.0162618939499739
0.0165251562405001
0.0167045226848241
0.0168867288403449
0.0169306377379236
0.0167524310249067
0.0168687791093916
0.0177460341539388
0.0180116440172481
0.0171620330948773
0.0166450126660666
0.0167886329339438
0.0170629080092998
0.01741556079175
0.0175176361329329
0.017514527996817
0.0176130937382706
0.0172647875990358
0.0168158859422201
0.0165952988666534
0.0164116277708298
0.0168543408079196
0.0169641024745977
0.0168371978788942
0.0171991844631431
0.0167202459371599
0.0162641490977136
0.016860299686279
0.0167135342214244
0.0160380002569234
0.0161604160539026
0.0163640077855657
0.0160225866153994
0.0159624873849623
0.0163514452212585
0.0160700666612933
0.0155047387300174
0.0158844336198445
0.0161654102190446
0.0159561840742326
0.0160061384262942
0.0159831819216685
0.0155453657644874
0.0153950325701882
0.0159278353201741
0.0163375897700938
0.0163286655095506
0.0158223507873584
0.0152566787478802
0.0149867707391076
0.0148493415437345
0.0148504022134624
0.0152767598457717
0.0161171369048316
0.0161120428536111
0.0154026748932881
0.0151163116491779
0.015193510113425
0.0147540420168637
0.0145146955804275
0.0145782192319575
0.0137428285646865
0.0131851841515028
0.0139372845073394
0.0144333984100147
0.0133830876534486
0.0131261327577162
0.0138391935662267
0.0143071626549964
0.0143013440733788
0.0139102792095588
0.0139017511913921
0.0138780338093082
0.0133548131859015
0.0133651793442796
0.0139818900356677
0.0140324933801906
0.013702766945286
0.013410273576277
0.0134111498647974
0.0130416410805568
0.0125958981483602
0.0126034198704643
0.0128817426916437
0.0127212514314033
0.0125314749995167
0.0120857624954941
0.0122668898155291
0.0127979337448292
0.0126127435787083
0.0124081357705964
0.0125001853371265
0.0121654997554663
0.0115230343165646
0.0118831138319757
0.0122880792945617
0.0119256548860225
0.0114311117426263
0.0117342202884786
0.0120444108888228
0.0115860493957449
0.0110742256698059
0.0111252243708636
0.0116095559210282
0.0114905706385809
0.0112133754575129
0.0109916194221695
0.0107881211410083
0.0106736420723185
0.0107061667472674
0.0104846606606627
0.0105705023263076
0.011046717804232
0.0110450114322353
0.0107790886068142
0.0106484393182891
0.0106348556489844
0.010557380503304
0.0103729681945487
0.0102861811008365
0.0103596012612872
0.0103272848633902
0.00980296208259118
0.00951049391019495
0.00978584351956934
0.00988241925847879
0.00967462042940472
0.00951663406687023
0.00997098001937865
0.0102310263059632
0.00989632561877983
0.00995072915563995
0.0100741206711911
0.00985302934583715
0.00929580907090651
0.00918570634505636
0.00958826528954671
0.0097667508869121
0.00912443942868586
0.00880140604896355
0.00903306622276104
0.00911063687464921
0.00870164023120455
0.00854711399794307
0.00873851582140056
0.00848198070651149
0.00836815954461633
0.00879930183764043
0.00876566220191759
0.0085354488782649
0.00842939315659607
0.00833110585117717
0.0088340765258692
0.00872673606956573
0.00852687659018654
0.00837030607783299
0.00793773847293791
0.00798203158273719
0.00823539629756873
0.00826165216805305
0.00783966327960951
0.00769078757192255
0.00750627981319514
0.00737797172552576
0.00737452286158491
0.00720948865950096
0.0071358412255206
0.00745450104054842
0.00764943158109013
0.0074496842505886
0.00745406449271302
0.00737315451401574
0.00699687962574495
0.00655464490526952
0.0068047517360712
0.00714101195590254
0.00698550177264725
0.00672129382048396
0.0069148849330332
0.00704819365348134
0.00692332631495621
0.00678080634525426
0.0063516541159555
0.0059397408159085
0.00617935290514891
0.00664117402859813
0.00663276085367864
0.00644607746211572
0.00633960818976949
0.00616020815631064
0.00639150310102979
0.00685061139709247
0.00658826557654566
0.00668235871829568
0.00719475458608863
0.00761927837932394
0.00806258110061777
0.00826875592919343
0.00789819640440414
0.00788301993289301
0.00860529489701596
0.00913006756929313
0.00962325606557224
0.0102061595628342
0.0113455358556053
0.0126288751466448
0.0138071753395866
0.0154777199105164
0.0176256781112238
0.0197803056313964
0.0224692943001907
0.0260073819789686
0.0302761371190265
0.0356252086598366
0.0428416712875468
0.0508956477570115
0.0593039192571172
0.0678127647318276
0.0747161441790294
0.077738253623225
0.0775188433498797
0.0746482092749639
0.0710642875812782
0.0674955972435011
0.0634792760811474
0.0601642929332165
0.0581899032000914
0.0563147022523882
0.0543993691096015
0.0524096684194937
0.0506340462455045
0.0490586004160708
0.0476073405574733
0.0457452854491929
0.0437807728300537
0.0418247297154082
0.0397212277115923
0.0375881340023427
0.035602079361159
0.0332276662787023
0.0312705596290298
0.0296789628231605
0.0278604789451644
0.0259756716657622
0.0245216978268488
0.0232583537376385
0.0224258886287923
0.0223051702325835
0.0233258250151437
0.0258129490616253
0.0302000261057348
0.0380122407273861
0.0493581686770586
0.0620845164157454
0.0719565147301639
0.0763451386489278
0.0760221997653585
0.0723413949730749
0.0674155684659252
0.0623602184614647
0.0569029202623626
0.0520182462804495
0.0483582706799295
0.044928371484731
0.0421331596422922
0.0396060505961637
0.0374304725882691
0.0359092331247401
0.0345750079225287
0.0334624608258271
0.0323160278690979
0.0313547991388528
0.0304766758115886
0.0297693377116784
0.0289148452185597
0.0280709346517235
0.0274238439448559
0.0266702367098923
0.0259526118459798
0.0253773891164788
0.0249743579750878
0.0245151967558241
0.0238807979444046
0.0234072533210851
0.0233189649576661
0.0231575839253298
0.0227565567505274
0.0221537097694331
0.0217783948928046
0.0214149641482178
0.0212844060299199
0.0211847123613095
0.020779712070063
0.0203878050870403
0.020438136023425
0.0201480737001823
0.0195771937123252
0.0193116208569162
0.0191557604329805
0.0190917598941101
0.0190081229648149
0.0185914289457372
0.0182265316816141
0.0184006975459554
0.0184382302902049
0.0181704354424512
0.0177577835652719
0.0173939802475554
0.0170802194883734
0.0172978175215932
0.0173101580220647
0.0171551630400488
0.0170108658733147
0.017210986483851
0.017349696371777
0.0172014948447937
0.0168259772463173
0.0164945688541996
0.0162061584933568
0.0161412684166579
0.0162300852962633
0.016357788555977
0.0163934823790109
0.0161415218466911
0.0159470261523686
0.0158226715463004
0.0159438515633014
0.0158873958966809
0.0155521572019449
0.0153891689075459
0.0152602434910401
0.0150887882029763
0.0150976146138705
0.0153127319934032
0.01534733904704
0.0155076525633536
0.0154057943500563
0.0149423188375091
0.0148495565873935
0.0147785958959252
0.0146610110857516
0.0148386971854461
0.0149540345791052
0.0149009600155474
0.0148372626792658
0.0148709810125453
0.0144681736407802
0.01427401354244
0.0146818918621088
0.0148589157466369
0.0148269922330166
0.0147137080487021
0.0148196641236709
0.0144711795507989
0.0141959677151908
0.0144008744342226
0.0147713994614164
0.014761674848805
0.0147453356598005
0.014769889891208
0.0148115355340093
0.014817037427694
0.0144722441072067
0.0141646166079874
0.0144423280769797
0.0143099551985752
0.0145674515414261
0.0146385159601629
0.0143631467994164
0.014308142352602
0.0142519645684893
0.0138514782062327
0.0135552499835891
0.0136921787307139
0.0138289625540066
0.0134789529567148
0.0135047803416796
0.0133845009094103
0.0135736137535087
0.0137341417281989
0.0132211270930549
0.0128308689504722
0.0129279860533158
0.0128599233841354
0.0127622782706084
0.013123352180086
0.0130516963839679
0.0129043213534602
0.0129464733694741
0.0129880374116518
0.0130234731611298
0.0123300809418541
0.0116249150026215
0.0122633664478683
0.0127695692038706
0.0123249415997213
0.0122188421653206
0.0120341622573031
0.012184188060933
0.0121327651213214
0.0115016341646027
0.0118245158174285
0.0122246071317886
0.0121903273696174
0.0119401271339482
0.0117243611393496
0.0120770316538994
0.0121683596942801
0.0116110977795532
0.0109937597973624
0.0112873967797338
0.0115307426495572
0.0112874114437192
0.0109457211298226
0.0110593351773972
0.0114055915135818
0.0114032826205303
0.0112435674500714
0.011068954689747
0.010803791855709
0.0110135953295593
0.0113427486887861
0.0110259859422405
0.0107621710699876
0.0108458306927362
0.0108052338335993
0.010690270467599
0.0105514058191489
0.0109392214138773
0.0111986622893896
0.0107001725295854
0.0103438048501657
0.0107345152389952
0.0110170644185745
0.0110815107707099
0.0105869499390139
0.0105426352930005
0.0107726819609552
0.0102066072888799
0.0100291857655999
0.0111376200629746
0.0112498001885454
0.0110957939844215
0.0110628301381762
0.0105898764306238
0.0102649051701072
0.0105422662368264
0.0108290635963331
0.0110432832935434
0.0108889643896382
0.0105466338414359
0.0107002214660325
0.010792729378423
0.0102479372751193
0.0100769883939763
0.00995933621776005
0.0102347910627293
0.0110597711194776
0.0108017825497454
0.0102608314603454
0.0100626820857211
0.00994993401077974
0.00985996338678268
0.010339450572347
0.0109688067256627
0.0108391426332978
0.0106253087106727
0.0106856532840641
0.0106283136032708
0.0103983285794566
0.0104460990211177
0.0101664490308422
0.0101530104879497
0.0105421110315969
0.0109215099020811
0.0107435627296599
0.0102243572095023
0.0101871152728857
0.0105601117398054
0.0104741416585777
0.0102823705906219
0.0100968353835477
0.0098157801998563
0.00934025249276979
0.00969242112582662
0.0101124483471349
0.010522486369294
0.0109235485631719
0.010576519810026
0.0102529041564632
0.0103792964603221
0.010250338785794
0.0100130542411085
0.010158335599322
0.0102204456908253
0.0103692392529766
0.0102270514555848
0.0101666189486897
0.0100817803404095
0.0099195802162979
0.00992614270249465
0.0101356014824389
0.0103623338057064
0.0110135720830545
0.0114796364636157
0.0114491034176443
0.0111103997858675
0.0109246693688437
0.0108384262533192
0.0112456364049157
0.0121634453645538
0.0118629044395976
0.0107208790958183
0.0103348789258
0.0110836523616114
0.0109439162496839
0.010441434998898
0.010510190246017
0.010073071701029
0.0096376431981501
0.0095530600838216
0.0100154584413899
0.0111666610650089
0.0116547288326069
0.0117975222014669
0.0117817035035892
0.0117107102354606
0.0118480345163023
0.011461523545296
0.011347530245826
0.0108126026799921
0.0109973491796278
0.0115185777525214
0.0114807763754427
0.0108757519844167
0.0109332661559317
0.0113326752470665
0.0116901324342274
0.011273847191379
0.0111976348234098
0.0114289969344666
0.0115478738005353
0.0114189570979168
0.0109639767835593
0.0107010260381014
0.0104668307487032
0.0103097865203473
0.0106960073158856
0.0109550784274528
0.0109767892928573
0.0111466143764128
0.0107997061356192
0.0104447883734167
0.0103703514236593
0.0103383111946358
0.0106474449443775
0.0106592855751913
0.0104491573306751
0.0100359615798922
0.00974640007955827
0.00980638234049655
0.00988351924772914
0.00950011475779606
0.00963049783561134
0.0100081375946728
0.00952586829274352
0.00932218115899055
0.00907080590211417
0.00862632129984445
0.00854272193603682
0.0080919344255583
0.00736424268181344
0.00708971046702653
0.00692754665204532
0.00841848273226691
0.0101264350168237
0.00946671721917376
0.00773155197764475
0.00687106381758183
0.00690634152038886
0.00753680508632996
0.00823854382728704
0.00718157286894602
0.00674034919844951
0.00752772404170749
0.00735378758183693
0.00664986669519681
0.00618563774030409
0.00598519990345927
0.00680326287919778
0.00714787201184085
0.00639127212613361
0.00503513092668088
0.00399755762096252
0.0046701947290575
0.00681573313172843
0.00696837361865854
0.00583211493380157
0.00597790193737628
0.00722457891979774
0.00625512281074846
0.00558927972446995
0.00472694786765287
0.00429152388048859
0.00385885686768097
0.00354126262585129
0.00474256576774572
0.00413113509412047
0.00434680439458025
0.00585446484775145
0.00515748211855115
0.00393717453114584
0.00290355383504073
0.00280327696251115
0.00267782453558022
0.00160643481074373
0.00235288939579603
0.00295229262247544
0.00316967836042645
0.00311035756185533
0.00249523944198167
0.00286316961667787
0.00399862040791582
0.00414675489036574
0.00233224392008966
-0.00067964181704016
0.00138595936521815
0.00383160265030313
0.00379611560265475
0.00359619974412359
0.00419682913440435
0.00408623177603758
0.0036138305139635
0.00474956484049225
0.00571629648943083
0.00652080343114423
0.00751661056681274
0.00705231318722101
0.00648383284974305
0.00655266653783178
0.00688330632543307
0.00736493918339304
0.00803506499513697
0.0074909256723019
0.00723842917148886
0.00760291637616967
0.00775112553779452
0.00814566447835586
0.008801006609117
0.00810219338292765
0.00833866730414508
0.00903267290802188
0.00863052130898616
0.00816706556311796
0.007541424706588
0.00762230542685302
0.00764242255079459
0.00759337366703397
0.00776350224494305
0.0085064145866302
0.0082610731073574
0.00772077634551156
0.00741299738119826
0.00758610787470154
0.00773118640180147
0.00743483804688615
0.00756497337591175
0.00814964065064649
0.00768234726944636
0.00701600849522301
0.00782512727623768
0.0082571079430248
0.00702709453642882
0.00626359346017972
0.00678501564382259
0.00698935675758704
0.00644149225507445
0.00660811659925162
0.00710964128996535
0.00658638843276926
0.00691095066630292
0.00703529161847292
0.006016990663657
0.00465601234515983
0.00364235304268002
0.00391589256004673
0.00409378716092921
0.00438160959688333
0.00537866537833789
0.00470293574489614
0.00222065793524426
0.00211681396563039
0.00343640174030772
0.00328249244484854
0.00160807962329427
0.000922290592376746
0.0021161089336856
0.00194682993009717
0.0015358463944785
0.00335136174098502
0.00485602587443005
0.00329989527983349
0.00157027790695497
0.00338977083574872
0.00655091435879062
0.00548046539329921
0.00264215780761135
0.00246971887640099
0.00307035109420605
0.0032848888102377
0.00499168974908037
0.00561730268871881
0.00489218338383583
0.0046089188365142
0.00517102281415751
0.00444705638801389
0.00383076953706036
0.0048999404342195
0.0060949527721424
0.00497192120794069
0.00436356749102993
0.00464979769801038
0.00332894660057534
0.0023189874713637
0.00413853225394927
0.00541010082575232
0.00510548573374284
0.00499137124949949
0.00569857995625858
0.00599966323646194
0.00531498800013823
0.00511385529330885
0.00523551163955703
0.00622456494594364
0.00627243478188408
0.00592708227599733
0.00650003469739758
0.00704013446612355
0.00695225808772791
0.00787744808948558
0.00889018303262664
0.00880672625321642
0.00763223154068344
0.00706651356295756
0.00696587490382505
0.00729720900836387
0.00824962985867583
0.00926831735823235
0.00937386363503696
0.0090592624060173
0.00934196250258323
0.00933592146468263
0.00937276445466761
0.00950598599205281
0.00955741793226512
0.00948767633355294
0.00939761139827445
0.00945572390757369
0.00970709913009706
0.00965288179282517
0.00986225923399006
0.0102614828051681
0.010676686112355
0.0106477645936096
0.0104711929170781
0.0104179649521244
0.0104289802122889
0.010552610222553
0.0104638642139553
0.0102351333125552
0.0100428224854624
0.0106901399693045
0.0111698455396127
0.0104435878693542
0.0106439489865179
0.0107644665848014
0.0107025401929866
0.0113405510240882
0.0120716304354471
0.0118385572513481
0.0113640345015075
0.0106765824158773
0.0107199524494621
0.0110248294964309
0.0110772804615696
0.0110679843088249
0.0112084200260386
0.0113975418045494
0.0110456738415058
0.0111763306859865
0.0117236041671598
0.0121849926041282
0.0122938495955241
0.0114084014139053
0.0107651053792954
0.0109613594337239
0.0116013573516422
0.0116830380163669
0.0115667797236064
0.0118785227422995
0.0117157440667949
0.0114686263953199
0.0116666657704362
0.0116582064771749
0.0115936962105981
0.0117591191453796
0.0120779290727082
0.0122966273368144
0.0118920627245636
0.0115815122749645
0.0118453929783007
0.0122814708957334
0.0122890628683377
0.0119160817845756
0.0122357280335607
0.012838816359409
0.0128246683968749
0.0121000929048053
0.0122923909546882
0.0130297537922385
0.0130732762569472
0.012106196838135
0.0120628272702233
0.0123119027717437
0.0125349347009722
0.0126635681178088
0.0129252755986231
0.0127367585313384
0.0122529676535717
0.0125759053087604
0.01369420536479
0.013694106186082
0.0128801514535127
0.0125495118411676
0.0121678264794816
0.0126964009392241
0.0132250076032183
0.0130041192434821
0.0132122422829433
0.0129410718262913
0.0125387583994045
0.0133802975549545
0.0140194018390149
0.0136281677785642
0.0131773881739346
0.0130888626920877
0.0127446292727661
0.0130089941630675
0.0132530362910133
0.013039881593626
0.0136507989329168
0.0145471706195943
0.0139880684932375
0.0130810338910674
0.0125954321157013
0.0125444362505263
0.0130166731111709
0.0136997261961033
0.0142463865826285
0.0150925775765731
0.0158183013577804
0.0148762499706253
0.0137782307490287
0.0134179392578974
0.0137410242554569
0.0143607454406177
0.0151711077723713
0.0153048331739253
0.0153634015373972
0.0164557419623207
0.0160696697743125
0.0157027690187647
0.0150625247484239
0.0146491079492989
0.0150699217575384
0.0156141980647088
0.0160439018704299
0.0176070355590289
0.0183887214238735
0.0170182882545991
0.0160286398821297
0.0164447397223919
0.0175817968701943
0.0181590690337245
0.0178019608657918
0.0183031823878573
0.0186441973177306
0.0180912125823389
0.0181505074500541
0.0189425133618612
0.0191465629905188
0.0189560358151442
0.0190960180499371
0.0202282497440323
0.0223317752680149
0.0220214490602039
0.0197464795958129
0.0199533923196116
0.021255997563027
0.0209077587850921
0.0201559117055826
0.0204311507560813
0.0210889148036787
0.0221667169237641
0.0225739919391793
0.0211506033450466
0.0199673212905247
0.0203202575157233
0.0210907366586622
0.0209720706325077
0.0210329776992611
0.0205542732553266
0.0192976801440551
0.019469696031634
0.0200458583904032
0.0190849207806709
0.0176721789001827
0.0174001758747733
0.0177206223607629
0.0179545155093432
0.0176656570908875
0.0174192506439619
0.0170593895822172
0.0168299614568048
0.0167616696449484
0.0167983047420319
0.0166436695456393
0.0163561214288505
0.0164951040774811
0.0166299743529242
0.0164125743338543
0.0161891558875649
0.0164123820073199
0.0162652517999456
0.0163222265249563
0.0168875800291756
0.0169546766689735
0.0155942598427932
0.0150219937596471
0.0157765828495817
0.0157805016724605
0.0151527919034625
0.0149914453328856
0.0149796598352926
0.0162065695136978
0.0171937196184049
0.0144980792997051
0.0113416837821489
0.00921651045446989
0.00802319018982013
0.00773048178165614
0.0082465250122611
0.00962984307504689
0.0111622232030362
0.0120303746103987
0.012206703778366
0.00984450282625356
0.007425026787359
0.00783388874147582
0.00892168400700368
0.00854430287905353
0.00815751894564306
0.00834670989958959
0.00907181953554847
0.0101791510089323
0.0120132075617818
0.0129657863739777
0.0129016215349908
0.0130703483163477
0.0130621709541724
0.0132159931242735
0.0138835322928111
0.0151504856687373
0.0162973531421008
0.0146180748128616
0.0128605895509664
0.0131165276514503
0.0140933110679804
0.0148521510198049
0.0146060314093951
0.0136671123645336
0.0139744707124866
0.0150363668603713
0.0149052151855555
0.0140229183135774
0.0134881785868728
0.0131816843330056
0.0128404603554241
0.0123897063633501
0.0121245802187468
0.0140666024185985
0.0205339265958746
0.0286515625721242
0.0327422713491949
0.0348342854665565
0.0366406019317764
0.0378833654717232
0.0387755938979911
0.0389402890704925
0.0384103560108164
0.0356788659657615
0.0301751560814407
0.0278128342141024
0.0274654529137851
0.0273234993245929
0.0269983585690994
0.0257758028255549
0.0252376298097644
0.0249380805772387
0.0245580756670673
0.0254885733569552
0.0257685382451218
0.0238048618238812
0.0229838236803081
0.0230885379020404
0.0228055930040889
0.0222305201018427
0.0216492402781302
0.0212336418135631
0.0213269117575499
0.0216911820690574
0.0202620937246259
0.0184584354251042
0.0179282726389604
0.0174636551514838
0.0170018032787779
0.0167438572830745
0.0167142695302378
0.016622339061907
0.0157856796646974
0.0150387015865536
0.0151383040571595
0.0152919967783803
0.0155891669670265
0.0152459257138056
0.0147838212606377
0.0151635497190876
0.015751964418758
0.0155241152036462
0.0148868722735424
0.0147094038065593
0.0148840016728726
0.0151484304321045
0.0155335649911551
0.0159185373087268
0.0158493253454905
0.0158757747473116
0.0164022091074492
0.0168205745722585
0.0169201240165307
0.017154421436447
0.0169554828692595
0.0163571553541705
0.0161604365284817
0.0162769504912556
0.0162229620963734
0.0162637830374959
0.0165751833023879
0.0164092331494597
0.0160597444101693
0.0161168895283744
0.0163743320044635
0.0165482912345129
0.0165587792513725
0.0162204558720167
0.016021846870778
0.0159045407799936
0.0158402632616027
0.016011910418927
0.0160530209030223
0.0157341569556469
0.015713458426201
0.0157513984925246
0.0159009576131776
0.0160559911169404
0.0160988460756747
0.0160620202039352
0.0160438321122289
0.0162003772607928
0.0165358480271103
0.0165803826887506
0.0164490758942271
0.0165721660110655
0.0166064498476251
0.0165944644707843
0.0166920093657071
0.0167791338148902
0.0169842205290694
0.017194080367671
0.0171627175005425
0.0170624175815257
0.0169139396310502
0.0170331240452664
0.0169758039417159
0.0168282129549952
0.016970402018898
0.0171838897438564
0.0170006982053377
0.0168158029824625
0.017011156691965
0.0171304822934554
0.0171469582524298
0.0171517985056507
0.0171737869329848
0.0173023193920288
0.0174650116839484
0.0174165571036318
0.0174646375910315
0.017675735209904
0.0177598069676515
0.017736720238737
0.0177747357339293
0.0177156170822416
0.0178640536894661
0.0182227437066309
0.0181664361045595
0.0181212682208451
0.0181869527407867
0.0181729602082173
0.0183576867199197
0.0185097772796185
0.0184927573551734
0.0185469980767157
0.018779619711362
0.018982022403608
0.0191123896182495
0.0192856320764518
0.0194801408943339
0.0197288359609489
0.0200206815218894
0.0201962155268665
0.0204686340190839
0.0208464814270401
0.0211813847451151
0.0216610648617001
0.0221596506432282
0.0226628368062272
0.02313784355942
0.0233754634264075
0.0236647190090179
0.0242062455533583
0.0246955512895842
0.0249532596869594
0.0253034992002342
0.025853341400813
0.026160495788689
0.0265214131395714
0.0270699570651748
0.027398498061714
0.0276986008385372
0.028287705798854
0.0285899136727954
0.0289180685509856
0.0297004173936075
0.030238150779625
0.030766345088119
0.0315907187986879
0.0322623337692408
0.0325663055511227
0.0325361296414296
0.0325113766121823
0.0324968149300326
0.0328164949026069
0.0335656459429403
0.0340622304953436
0.0346724471679387
0.0355958050270536
0.0363114374398435
0.0369268745624294
0.0376573454079714
0.0384147045327179
0.0392589236597133
0.040112934624282
0.0408563248634504
0.0415823860352355
0.0423983950926456
0.0434428251641547
0.0442470166676361
0.0449622242030888
0.0459182176508702
0.0465586050645012
0.0474302839163325
0.0483625567902527
0.0491259542778481
0.0501383587819239
0.0511333451820684
0.0518200600130512
0.0523488087067539
0.0532789475080029
0.0540738337288233
0.0547613482305078
0.0556257036295128
0.056279425518974
0.0569743981313545
0.0576571690025732
0.0584010521884954
0.0592589805590964
0.0598023731555198
0.0604320837749947
0.0612172529369236
0.0617244415355009
0.0622732265021107
0.0629788803926935
0.0635329955068744
0.0641513031164405
0.0646289076389897
0.065251786069276
0.0660555010775663
0.0668786619876171
0.0678246578052994
0.0691066779304833
0.0706081230031107
0.0721058844457196
0.073996369094076
0.0758588496055266
0.0776909200969328
0.079652129731292
0.0814429094201091
0.0831132618414308
0.0848747582032638
0.0864009160275977
0.0878495037601053
0.0891854855235898
0.0901830464979287
0.0910562499160939
0.0917354622853578
0.0919549341874556
0.0920430096033873
0.0921802272234855
0.0921450993904025
0.0924706910154019
0.0933540133301941
0.0940153660399527
0.0945462080303595
0.0952231491552732
0.0957134573341266
0.0957121677891385
0.0953156317870578
0.0947820044463654
0.0940477093357972
0.0931327675850064
0.0926437729561086
0.0925899154149035
0.0925723557906376
0.092864675606864
0.0934439287457262
0.0936351113063738
0.0932511840209882
0.0927505988002246
0.0920974127446565
0.0912162869948367
0.0903925300993619
0.0893946645442584
0.0884253869442406
0.0875909137952079
0.0867745804840748
0.0860136519278739
0.0856378843416991
0.0853381680417211
0.0850326784481895
0.0849394919068807
0.085021280535101
0.0850117760826984
0.0844623723032733
0.0840207266692673
0.0835535948716267
0.0826156375479928
0.081688547832511
0.080816904316018
0.0795775433659385
0.0779397756754186
0.0762049696041481
0.0745161720481998
0.0730430102429138
0.0716319889565417
0.0703175619097502
0.0687817089524029
0.0674421532808157
0.0664698959971197
0.0658711536854477
0.0649406914232761
0.0638714193522689
0.0628911588227685
0.0620771228284334
0.0613303854378855
0.0604236719842391
0.0597108799825236
0.05910337799062
0.0583994632769272
0.0582887653118961
0.0584489587006664
0.058422929862943
0.0583572061676399
0.0586152770974081
0.058430095465033
0.0582476470189848
0.0579168934607254
0.0572809190035575
0.0567059979938082
0.055545386433805
0.0541477753236474
0.0528429768979152
0.052071239113591
0.0513793010827743
0.0507274087962496
0.0499028021789501
0.0493742374705549
0.048968064471014
0.0480129368898052
0.0474038533136965
0.0470699355548528
0.0465890264209683
0.0468273730171962
0.0467680375622621
0.0459502862806163
0.0451043904430866
0.0440706981487245
0.0428622627511355
0.0418365357893986
0.0408643697455113
0.0396777690290491
0.0387324444082269
0.0378078400834324
0.0369434513701497
0.0364116796604343
0.0354048430976574
0.0343942139282043
0.0342617792261977
0.0343034175151742
0.0338387285701788
0.0329634575314994
0.032751074054691
0.0328709875734088
0.0324045705585841
0.0321000042608484
0.0320494308941288
0.0316537152688416
0.0308307483630391
0.0305355832649328
0.0305943337579964
0.0302458881783898
0.0297586156181864
0.029615376467278
0.0296712095708601
0.0296595052869912
0.0300031385952272
0.0302465733619004
0.0307455489470646
0.0318557797602905
0.03358361040939
0.0361860361811575
0.0385566924591302
0.0404138596131757
0.0416577817313765
0.0421477613671532
0.0417728256244472
0.04157265294869
0.0400014149173749
0.0378978432420778
0.037177767837261
0.0372678118525474
0.037452254294055
0.0380670614016231
0.0392905529084694
0.0396033387045822
0.0397573671912918
0.0394861742711326
0.038159951056637
0.0371790998539509
0.0365873956068728
0.0351205764121516
0.0338517972918035
0.033578552686566
0.0331972994566052
0.0319296181782308
0.0301014068985739
0.0294674089697291
0.0297023240621103
0.0299866415287451
0.0299286149001185
0.029053173744234
0.0279718048862839
0.0274874368713362
0.0269965270993654
0.0259061136428547
0.0250809527682804
0.0260558427766528
0.0262773462014099
0.0263487841826763
0.0305043487112983
0.0381153294611123
0.0424282525398573
0.0411049319951824
0.0391669975416881
0.0402129106423997
0.0474876067450344
0.0594003248000552
0.066144272829991
0.063990216641958
0.058208819155953
0.0521443689670893
0.0473873963507375
0.0449433742735774
0.0447125905722942
0.0449622465035887
0.0432094409300397
0.0419077945666133
0.0421599666610169
0.0426393718550342
0.0437787748416141
0.0440346564406624
0.0432508304440725
0.0422455625378628
0.0409469308794027
0.040521957591409
0.0401959495022757
0.03996904559325
0.039309947717974
0.0389135232252785
0.0381141771427371
0.0386624910594293
0.0410012682999477
0.0416440145702884
0.0419203991196899
0.0388275230719931
0.0382802252935387
0.038699374412099
0.038371317253667
0.0411551732584061
0.0433729759891025
0.0394847421688013
0.0387476701178226
0.0411840489136879
0.0406403796556955
