1798
3999.43349933624
650.420452594757
1
2
4
0.00504394421265355
0.00519152355200678
0.00531259580871095
0.00501050749938658
0.00454715732264151
0.00460731364601258
0.00450835593118356
0.0041886483137162
0.00418157554860285
0.00436987106675263
0.00529288315370023
0.00554530917745193
0.0053278191970002
0.00522487533845231
0.00525917957991682
0.00486327748771224
0.00465913818497108
0.00432164120046915
0.00390799346397796
0.0045398188927337
0.00523355847552907
0.00530093846152327
0.00547317893261712
0.00582446457447677
0.00572916177276808
0.00498012596729183
0.00455043274286724
0.00486141743021729
0.00533698986246924
0.0054759476748736
0.00500891323123279
0.00468344320492512
0.00461295123053568
0.00490244575971076
0.00480319881401021
0.00470143729760729
0.00444427335250239
0.00475202324103019
0.00512065826913079
0.00525369127346991
0.00523359176528741
0.00463630871290293
0.00397552578688426
0.00476572716033953
0.00516458048372783
0.00458634452319855
0.00485293093820739
0.00513576951868241
0.00507087978525097
0.00534614087885839
0.00562503928616934
0.0051905098919075
0.00436234423965969
0.0038147096880282
0.00389088808895926
0.00455075873505372
0.00511893859414188
0.00510733825615715
0.00421113668188576
0.00440146688321149
0.00540341988234484
0.00519240881882579
0.00455390954736101
0.00429912526651813
0.0041874945330338
0.00448068409016067
0.00487199463286417
0.00509166406567218
0.00493847258797043
0.00447380784203091
0.00437677092917804
0.0047271162454651
0.00486470113179254
0.00459418232339986
0.00453841821695955
0.00468008828672332
0.00470762892534311
0.00510269354837509
0.00504445606548691
0.00430310793704925
0.00316609615077668
0.00338270385504958
0.00413768899969871
0.00428613071936424
0.00415656678334986
0.00431646620400528
0.00446801163777621
0.00445667928962708
0.00432242727686119
0.00498138620126164
0.00484387402006489
0.00437915287810974
0.00442949814484103
0.00467003037207894
0.00529084684645586
0.0049893495342066
0.00381211066899654
0.00388926788442558
0.00385049886782231
0.00373278700148448
0.00401770880697503
0.00454255643285343
0.00472661464815719
0.00453702910634008
0.00457411694349862
0.00520553580437006
0.00496465525994369
0.00431989560684785
0.00450341005203738
0.00446782910945786
0.00371815701177032
0.00417461269295451
0.00469786776671276
0.00497430198939653
0.00480739690351484
0.00452897078785837
0.00504917075491613
0.00552223875924
0.0048951968649962
0.00436824065076669
0.00427132046374407
0.00472110445069558
0.00489290083073548
0.00473243438259106
0.00436776731781996
0.00438892675386359
0.00444504694923263
0.00459428440701775
0.004343529406697
0.00465199262419393
0.00507689881648903
0.00506737321471492
0.00563535787084121
0.0057296172242793
0.00398974198530546
0.00395894560810511
0.00421476898953949
0.00323283687563912
0.00327120365727676
0.00389601893248818
0.00490906211942494
0.00544838701394927
0.00493647546917142
0.00431136995988182
0.00434623703782891
0.00501164916424254
0.00477257379780992
0.00444704012410666
0.00399777171285132
0.00358080634489881
0.00367736919302088
0.00432913345622603
0.00504417893113779
0.00496909546294081
0.00473925609552855
0.00462278687773183
0.00433211197296044
0.00427515590907141
0.00456704392003707
0.00528196620850667
0.00572407007787111
0.0058740952994017
0.00569441712702355
0.00581458369843137
0.0063869900317866
0.00669532939714998
0.00625412296576956
0.00575015313623132
0.0053875154285611
0.00521700541594293
0.00505221022228413
0.00538664789926186
0.00606374481366484
0.00594646742169823
0.00545407288958248
0.00597560316346001
0.00563515337084494
0.00584861173546675
0.00651188694890398
0.00661111361538466
0.00686915863072624
0.00703311821406643
0.00699377381497554
0.00703664031363394
0.00772908313398122
0.00810961500550318
0.00820443625989256
0.00838457084683818
0.00799533304863828
0.00812881612788073
0.00928180380629486
0.00936286709006706
0.00928738509049488
0.00995427412006198
0.0103807521137583
0.0109918964612447
0.0119417814854913
0.0125849420032956
0.0122103220306025
0.0119159281815089
0.0118552881275338
0.0126552699144606
0.013692163051851
0.0140682238271459
0.0138231884956975
0.0135889975040416
0.0135368917724953
0.0139593470233825
0.0151113040319534
0.0148234449495742
0.0141245222924112
0.0141256929997356
0.0146764266310792
0.0147705664655154
0.0149749687294299
0.0154793331967269
0.0149980285486296
0.0144632631601117
0.0157277412931678
0.0170222035019366
0.0171480415523971
0.0161427376724634
0.0161598377679688
0.0174745714133264
0.0180627347887383
0.0174044785611138
0.0163729580941483
0.0161409735942944
0.0167151455887599
0.016504687623451
0.017630505172581
0.018931044834295
0.0187513309569548
0.0176869407290373
0.0174866436606438
0.0186102711044563
0.0193135651978305
0.0198807166845274
0.0200995922798893
0.0193820054712796
0.0190179952953741
0.0195033851256634
0.0198182497623389
0.0194430645897377
0.0189307588149002
0.0195453294493356
0.0199968475433383
0.0190574169017944
0.0187047615828165
0.0196279781036813
0.0201378963111726
0.0207303793225255
0.021692693450405
0.0211611169071609
0.020424323009379
0.0208927163795375
0.0214187603227864
0.0222863327539658
0.0226260103968492
0.0233190498722943
0.023798693462357
0.0232463216930088
0.0232676568764656
0.0233160352275448
0.0233888327799936
0.0238345181950673
0.0245068259933197
0.0243030167536195
0.0239260972764029
0.023924121947775
0.0235306023393935
0.0241256811248018
0.0246346015085929
0.0248993837233016
0.0252629717799392
0.0261700661082981
0.0262337772502248
0.0261143470237118
0.0259368293174194
0.0256096585925693
0.0258106326905832
0.0262845385092293
0.0267074115375801
0.0266484908965084
0.0264086736156997
0.027329842778767
0.0281891775765507
0.0281285358230616
0.0279329105712597
0.0270240327015158
0.0264744509596505
0.0269664286638717
0.0270207757735957
0.0269660373364766
0.0276572640224838
0.0278008025943728
0.0276547818647747
0.0281626364965164
0.0284746897742768
0.0280591601651446
0.0271924625221044
0.0265935339148097
0.026397281183057
0.0267891397746035
0.0273331793099805
0.0272635761445997
0.0267519123184813
0.0275952332093485
0.0285620817268415
0.0290276268451359
0.0284817458001817
0.027667316996377
0.0278676235833229
0.0283147702758207
0.0285714297895779
0.0282275782024553
0.0279980373556439
0.0279174944884645
0.0275986828096149
0.0275515381595017
0.0275622522465034
0.0271812015711477
0.0275129927185632
0.0282268490618408
0.0282659410383443
0.0280894343146244
0.0283468957212247
0.0285409692219126
0.0279857561637889
0.0280765200806125
0.0286521429356048
0.028839607129795
0.0287720336956538
0.0282611589892199
0.0276145774950292
0.0277357208302406
0.0289474761513179
0.0297438417758452
0.0291665195097406
0.0279290427648832
0.0280608570598733
0.0288035001599987
0.0288166740123664
0.0283986386700578
0.0280552703766982
0.0286624524994731
0.0299053687369803
0.0299404487979932
0.0292913484115671
0.0294019799715237
0.029689010672544
0.0299572320247172
0.0297133676871179
0.0290352654922309
0.0287945588180949
0.0289158584658013
0.0292099476207993
0.0292485785876165
0.0295134188646568
0.0296537314647948
0.0296456886516156
0.0296100870876688
0.0292325750362412
0.0289702175189439
0.0294674928430482
0.0294578013158799
0.0296427917287724
0.0300926306002647
0.0297511808419945
0.0293414840564721
0.0296615545222273
0.0302810986788564
0.0303548309068724
0.0300633633725263
0.0295087342801246
0.0292811367299484
0.0297855393387655
0.0297157356791591
0.029649200093142
0.0299288711722412
0.0296685444501768
0.0296077224477136
0.0299343379693418
0.0294963384431916
0.0288014917794021
0.0292652004670727
0.0297456619816579
0.0292122644388591
0.0290448732994267
0.0296027243011042
0.0298959949347551
0.0300051593826214
0.0299087311481836
0.0292242339163814
0.0288235088807204
0.0291956667907426
0.0290916680769118
0.0288718836716805
0.0291206670620566
0.0292281372227275
0.0288906724643687
0.0288573866725382
0.0290120598279812
0.0291890896509348
0.0291509287440769
0.0286295493432014
0.0282867902320809
0.0281398291100271
0.0281044447024979
0.0286590404964031
0.0287915042772935
0.0281424485406115
0.0273542016793751
0.0270514007247653
0.0276255548349193
0.0280827307356052
0.0279991654875888
0.0277075033729913
0.027084917666256
0.0267679351267883
0.0266946931836133
0.0264644084839662
0.0266028496418745
0.026682491375712
0.025932836517412
0.0254903536334105
0.0255749617813592
0.0255195476120001
0.0257410980824387
0.0260586254941021
0.0256010637818955
0.0249594343413416
0.0256476692158161
0.0261945253756166
0.0256110208766112
0.0254335411444932
0.0251098485818757
0.0248214940250077
0.0250714952657496
0.0248226931745888
0.0242984457017296
0.0241299283882495
0.0242940445894293
0.0244429623747217
0.0239793289106972
0.023284436483812
0.0231629078430914
0.0235562768396276
0.0237799636764821
0.0239285826201402
0.0240946539982891
0.0238775941135574
0.0238607471043369
0.0239482408247104
0.0234608247258605
0.0229448774807542
0.0228310464875996
0.0225039585922275
0.022180937758971
0.022370946987239
0.0223772723823389
0.022309432437953
0.0223946879952273
0.0222786249876213
0.0219973428992987
0.0217171146034491
0.0215472092822892
0.0215442219206419
0.0217606555454918
0.0216693248311446
0.0213761360154797
0.0215006497752831
0.0216790116357529
0.0216075869816592
0.0211289591177138
0.0204172256508282
0.0201242008216522
0.0202092280367009
0.0204516621783781
0.0205505173291241
0.020657982544385
0.0210795378467426
0.0207055361099629
0.019830772587579
0.0199196680108462
0.0204189602565425
0.0202433217518558
0.0199255931029112
0.02002790847059
0.0199844095675545
0.0199224512688702
0.0198988872903079
0.0196230857260669
0.0192063454455964
0.0191048744875257
0.0191858778866677
0.0187839704464172
0.0185741543864021
0.0186717245835954
0.0187471530970265
0.0188012049221443
0.0183953337094434
0.0180074324095159
0.0180436448578501
0.0180989390696062
0.017823989210203
0.0177216427457235
0.0176971390140298
0.0173129123663027
0.0171543078711689
0.0171854915180622
0.0170015985197007
0.0168344669890754
0.0167677063898058
0.016474945583779
0.0159574981705517
0.0158583521981361
0.0161923415019789
0.0161512338962905
0.0158190548606902
0.0158207499543551
0.016228359355069
0.0160910903722596
0.0154534779183134
0.0151942987820399
0.015180452815069
0.0152449425322455
0.0153433085275981
0.0154549650535645
0.0155490704259392
0.0153175913732531
0.0150155145459514
0.0150126478695853
0.0148979385529054
0.0147484032643703
0.0147351784830168
0.0145092153720871
0.0140849156859754
0.0138827547325454
0.0139404819749651
0.0142051106359861
0.014278448248739
0.0142914287614571
0.0145666290786195
0.0144626728034721
0.0141681779785726
0.0141351697436351
0.0139709122860497
0.013914874733611
0.0141011924520513
0.0142878406751475
0.0142514735179936
0.0139123485912084
0.0137751915073971
0.0140098521396969
0.0142727677447079
0.0143460427215046
0.0145704544648312
0.0146611685793976
0.0145254479614393
0.0143397653623818
0.0140811040284091
0.0141027306480079
0.0143386672749228
0.014066084233419
0.01372917266577
0.0137466099934321
0.0136645135211972
0.013785916872493
0.0140852423763167
0.0142425347964235
0.0143250597216196
0.0142400465665101
0.0140995914739132
0.0141029115270145
0.0141355984575818
0.014271800261485
0.0145327156209195
0.0145924772696897
0.0144100035749867
0.0142445020026166
0.0137756301265294
0.0132666800238753
0.0133110605288768
0.013647616792713
0.0136996068196773
0.0135479911651038
0.0131449317729699
0.0131185132918846
0.0131130758132375
0.0128956216756595
0.0127646785348277
0.0125643377591219
0.012489863329807
0.0125113310684968
0.0124865261830814
0.0125488639760419
0.0127906988380164
0.0129847636455909
0.0127690349141108
0.0122186292282172
0.0121731867203668
0.0126122670372488
0.0124694656170446
0.0121086601426097
0.0123665606148824
0.0123952437035134
0.0121250769975372
0.0124365533998468
0.0126224704143755
0.0120150587237611
0.0115489960686925
0.0116605821202646
0.0117310250093979
0.0117715896340224
0.0119102020254007
0.0119279284880948
0.0117995780334647
0.0116958211735589
0.0114141938200328
0.011200589330663
0.0113191504311191
0.011581208881405
0.0116368215088825
0.0114792911355547
0.0109736133805851
0.0105293961975057
0.0107634803163105
0.0109490807182443
0.0108306326695836
0.010756272631704
0.0107240905589461
0.010782508386228
0.0108043525351169
0.0108434800277997
0.0109420932420834
0.010960667292371
0.0109009809734151
0.0108189284035087
0.0107269830863819
0.0107729249727635
0.0106409558885051
0.0105363925962687
0.0104052705030292
0.0104730684145481
0.0107774573085931
0.0105679286990631
0.0100731094105105
0.0102652692846461
0.0106131004811791
0.0104328960831075
0.0104126990849712
0.0106202272262697
0.0106122872855652
0.0104774928951286
0.0104326160531453
0.0103052805327603
0.0101879792978757
0.0101973095767328
0.0101856937322396
0.0101447236496924
0.00991915945656174
0.0100115738691397
0.0102485227039747
0.0102254886467747
0.0102271739446336
0.0100463260986918
0.00969348301771887
0.00967899534812732
0.0098444769326112
0.00987260890444838
0.00996406371397476
0.00997088776743263
0.009828530508093
0.00983006526507995
0.00963595814093702
0.00956140097690782
0.0096314790713879
0.00962341645020069
0.00962427408827683
0.00947536056359523
0.00928172762959209
0.00951473823271079
0.00957115590033783
0.00942088179026946
0.00937994292869452
0.00951385726222704
0.00966847189425482
0.0095507570743412
0.00939955889113171
0.00956330187344192
0.00962983208041103
0.0093759941202723
0.00923931842289648
0.00917149811487122
0.0090061966177004
0.0088645356324158
0.00918332343994955
0.00935902051579586
0.00930708999363968
0.00928652417699738
0.00920675100770907
0.00905602930402245
0.00906647157924649
0.00929137095647803
0.00917778915214671
0.00905026789245541
0.00926190179810909
0.0091940949268854
0.00889065489368653
0.00883633155094883
0.00894020227178316
0.00902921073076777
0.00892614895096067
0.00903727619294289
0.00909609770080484
0.00897522440002072
0.00884732763952258
0.00873482797404182
0.00902749678521591
0.0092008604384477
0.00902206950119893
0.00915154341695637
0.00933770049522013
0.00922000313550575
0.00933245738674586
0.00927508684889472
0.00877439988187035
0.00889005676062016
0.00916107013506117
0.00882098460817857
0.00846793008394963
0.00879580035426014
0.00924857055429809
0.00922040861119733
0.00882849728887382
0.00879006919640885
0.00870673127120448
0.00898562087504461
0.00932933322029765
0.00923341359664256
0.00867851439112542
0.00841202694907717
0.00854720991754009
0.00868351154932223
0.00870384334201669
0.0085754987073555
0.00856848011148665
0.00869025740952567
0.00845848546721811
0.00820944012559218
0.00860095489393825
0.00927911740012947
0.00961877160593914
0.00915315220787803
0.00815896914018016
0.00746905106315458
0.00782170044330173
0.00860436531255344
0.00861371247889497
0.0081279467556129
0.00808386510730703
0.00800260211511653
0.00782561483063725
0.00830501285241307
0.00825490260859513
0.00790457439886613
0.00787009847809825
0.00807783856283969
0.00821892193684978
0.00834414952304203
0.00826474763018202
0.00828724404835468
0.00785840688713614
0.00735263366005473
0.00756678763868617
0.00775685027760539
0.00732978559690908
0.00765451028393453
0.00801311748382169
0.00769289194212193
0.00761778172601646
0.00776308959767261
0.00747577461524535
0.00738329388886382
0.00778440119283043
0.0078664779787027
0.00754748768661131
0.00760395599217802
0.00772298655142106
0.00764491780808996
0.0071866317692525
0.0071947741260128
0.00781120624260624
0.00761568650081845
0.00761543576756745
0.00798175416809578
0.00770440671732829
0.00725240762325808
0.00723937569493206
0.00730517050031465
0.0073999235405504
0.00754759181192333
0.0071123549674191
0.00696562479378872
0.00730919685399252
0.00789945526071216
0.0082883082594937
0.00815227682521677
0.00784013522683641
0.00790920888191817
0.00760268649556454
0.00723601024343924
0.00731999203069489
0.00773181732370669
0.00770972771921792
0.00758504130959805
0.00722823464572663
0.00679038150409137
0.00662050339654546
0.00674436831861632
0.00726798728516695
0.00779294449437053
0.00761660968763237
0.00764707355560505
0.00782601903863319
0.00756035805834556
0.00744495205097722
0.0074663253009756
0.00750235144946741
0.00694711768039578
0.00635551498981812
0.00687930701108401
0.00714238723655464
0.00706458309162097
0.00760124660379092
0.00823102250731932
0.00770095124291854
0.0068824333612756
0.00669110593847131
0.00707857666865643
0.00754472422673565
0.0075636258089598
0.00707769417597909
0.00675653635810813
0.00693014162526647
0.00696222726969687
0.00670799683185721
0.00701223578685775
0.00702122058741878
0.00689654000299334
0.00754044961296768
0.00773524310694465
0.00728300419062675
0.00695119140156141
0.00699261011261528
0.00694666197272313
0.00696115429058322
0.00702211850645033
0.00671311160957768
0.00702115378576946
0.00746767934576054
0.00728677582911343
0.00688415644047952
0.00710448026503909
0.00705087311351281
0.00686410547994196
0.00713492637395213
0.00707290774732033
0.00699953400404687
0.0068799617708642
0.00666027051492616
0.00674377309679509
0.00740413893221654
0.00747935530976002
0.00646342830252196
0.00600268285309372
0.00640862675672478
0.00661654766042327
0.00673566011977699
0.00679230368666687
0.00667700753459478
0.00699258114335957
0.00678709998255526
0.00678114253388646
0.00711577926294268
0.00756051344435153
0.00732671730586546
0.0070179491217769
0.00725290379437628
0.00761285531528377
0.00756696435141195
0.0076095395716016
0.00726072120910746
0.0069429261464207
0.00684968337364908
0.00703524503659743
0.00729354177226385
0.00803125592034842
0.00899116792813353
0.00906872556949227
0.00853652327073361
0.00794025082983093
0.00769190898822063
0.0077973936229459
0.0074992377927489
0.00780964755035183
0.00838971576285378
0.00811808389124928
0.00741763042380399
0.00713323762220135
0.00739259351900513
0.00751948690286693
0.00754105011648337
0.00747044702868884
0.00767327825480912
0.00813740980225488
0.007788153203077
0.00755573438442601
0.00750448938923082
0.00772907650117387
0.00805260774656184
0.00763735713579396
0.00726123629485002
0.00732840992033005
0.00677311970336898
0.00637683899210087
0.00721641700364293
0.00711494868066625
0.00682049951430329
0.00684474835824572
0.00593926506258715
0.00550212399976633
0.00579109790708373
0.00565350971403335
0.00615154422600903
0.00705180123968928
0.00714602938854868
0.00698245829777595
0.00680148530266288
0.00592387512432604
0.00540531098620038
0.00666734598516041
0.00680831004175898
0.00606025324730239
0.00609535349233993
0.00609512641043447
0.00494210493707883
0.00512509756746285
0.00591344746517187
0.00587048635679167
0.0061263638906041
0.00539160086671082
0.00390538247841916
0.00468254308687891
0.00537024028529214
0.00525468239599886
0.0055470660562837
0.00494380338914056
0.00430699521744755
0.00501331998146215
0.00622406210772752
0.00580793913843849
0.0048211404374894
0.00353284989402347
0.00396670118586538
0.00479002650380212
0.00426777314437565
0.00457531408894081
0.00602502174156075
0.00617161170903472
0.00462237416552436
0.00363048987930655
0.00413465554986072
0.00468621835517865
0.00425979790530168
0.00471212740411239
0.00515984846050119
0.00387404649829677
0.00221134100165734
0.00175150584063011
0.00355320854281457
0.00402649165479167
0.00424015764741517
0.00494298746482219
0.00319796637568385
0.00400533992523982
0.00410291692753226
0.00365412741098975
0.00304723038369058
0.00191662673341864
0.00171214071136738
0.00246556188436352
0.00256641603008464
0.00265662547746768
0.00231953189314604
0.00250252360660424
0.00389898874150679
0.00447786867384312
0.00359291730542663
0.00288718326187097
0.00297837752453059
0.00395732586733934
0.00448765355095249
0.00498157256051399
0.00491372552389727
0.00501161533454208
0.00512228203214864
0.00497835900068873
0.00556794763159015
0.00573850216538913
0.00525627048372063
0.00526086572000705
0.00510896352315621
0.00523206062256915
0.00570175818476496
0.00548152170297682
0.00549911277554413
0.00582688232865213
0.00561751598127958
0.00495046513145053
0.00488382283238855
0.00511489112203068
0.00523921297114651
0.00580676548403596
0.00616738603746088
0.00565822987275237
0.00513442120734496
0.00517214150907132
0.00523021253861496
0.00578672050430044
0.00620113972190106
0.00604097730372275
0.00503830244987474
0.00385189344934069
0.00474278044732447
0.00526804005978686
0.00391309210226589
0.00361838536954249
0.00445378093360912
0.00500490694711701
0.00530789097264347
0.0054098160320089
0.00422707672657235
0.00308104532537281
0.00337945512553396
0.00394875253076542
0.00339480692721866
0.00229099693482521
0.00324792188639203
0.0047730385956911
0.0027601788751197
0.0015287618223056
0.00221886974674275
0.00214861775236555
0.00260106516445365
0.00202240268980962
0.00121412401373892
0.00242879412422881
0.00268884413631324
0.0029028959184623
0.00328509950007986
0.00371809509352787
0.00285062299515525
0.00165931311760691
0.00252070142758386
0.00221545194907207
0.00094098764644968
-0.000154968426015535
-0.000872997248249573
0.0015011302385872
0.00389647983968088
0.00404028919728868
0.00458716762151539
0.00544606081533686
0.00398564442306398
0.00173350942485298
0.00244671938351988
0.004243692959437
0.00473881060153129
0.00440076831300922
0.0033790205415619
0.00278684620143544
0.00319184388515587
0.00345338118449125
0.00346576233217575
0.00366073928075476
0.0036548213099152
0.00283079338042546
0.00260826425923901
0.00297034703614392
0.00311820900073896
0.00310669679785175
0.00281180830341821
0.00350806267629664
0.00409505619539334
0.00476396032372725
0.00459322032302847
0.00349957507283772
0.00433365495068214
0.00586937283631777
0.0055739094756591
0.0049181007110115
0.00418379800562033
0.00296825205242114
0.00356006957737449
0.00547236657851753
0.00555680108011417
0.00469783053195394
0.0048624670819962
0.00547127240516811
0.00583200475597976
0.0054581394021311
0.00474557922324319
0.00468132733135664
0.00529681872941557
0.00598751397508538
0.00596491247287487
0.0061356584187698
0.00648097324697804
0.00650530412939248
0.00638451380085931
0.00605481036306628
0.00592553534252343
0.00576825303375499
0.0061372244045081
0.00669511759611863
0.00658357833895779
0.00631158938871959
0.00607163153724194
0.00591078048818903
0.00611791397912246
0.00637202453745564
0.00585800922797724
0.00523763191570104
0.00534719792765154
0.00591287607665577
0.00623152359854097
0.00648294745620916
0.00708468941502228
0.00668099584551127
0.00575563791103371
0.00593583466994365
0.00653230292411068
0.00636895628211538
0.00593769302106489
0.00601566031208236
0.00627706735743201
0.00633963453566943
0.00639337314518354
0.00640646734632171
0.00597801893895327
0.00569771060933724
0.00621377898065888
0.00643871166366944
0.00630179758303244
0.00656131670567944
0.00634485546685729
0.00607717465256663
0.00618956974516152
0.00586242204878009
0.0052946027135387
0.00553716728172698
0.00639938133142178
0.00656530553416088
0.00620317192534356
0.00623707508290621
0.00646830987240336
0.00653075555929214
0.00614131712484139
0.00574824345832497
0.00585842718038762
0.00622822085632097
0.0065196539994509
0.00659725071499638
0.00669026523117602
0.00645565405955333
0.00601675315932827
0.00613937682417129
0.00660276609193566
0.00697361394848262
0.00701448162280812
0.00687033349650741
0.00702825689678169
0.00715334805642221
0.00687673893289808
0.0066536718356865
0.00685909791878063
0.00712443463878728
0.00709927899313333
0.00705889009152343
0.00693262849637476
0.00684093695803433
0.00710327476709212
0.00714699154002637
0.00679253215321905
0.00714595328211791
0.00758866012062708
0.00738053693208308
0.00741452163870501
0.00750635637426376
0.00745808544185606
0.0075607320163545
0.00767642131827328
0.00779563535619653
0.00817581251013931
0.00841058131633629
0.00855610576263457
0.00869309925092227
0.00880106554226376
0.00893281590317808
0.00931426652965803
0.0096121943189103
0.00954121993010129
0.00970976464904446
0.0102538221842914
0.0106089204813082
0.0107871365593002
0.0107914242417008
0.0108535885721768
0.0110075092018941
0.0111746674225261
0.011459283737227
0.0119289157676823
0.0124146325396682
0.0130927278552476
0.013545006929947
0.01388067709027
0.0145328180431672
0.0155444033757462
0.0165149082086431
0.0176407088513579
0.0191946276871071
0.02059921539597
0.022023983298982
0.0240355393382488
0.0263834384731692
0.0295377206021529
0.0328656074441955
0.0363782054445558
0.0404838152659459
0.0445008202360722
0.048068234679675
0.0530785638402055
0.0588729208162055
0.0644563956851834
0.0691655343698976
0.0725715884430807
0.0766692486867257
0.0813655068802147
0.0847010002293779
0.0880376739089222
0.0919885597875898
0.0954151477330486
0.0979346050580401
0.100563876043343
0.103660845180854
0.107313004626597
0.110122035633223
0.108436076861577
0.109864371136804
0.11475195960641
0.116145588199573
0.114753658617587
0.114848274547018
0.115100393228104
0.115119045478572
0.115591319835423
0.113844958987968
0.109822885326886
0.109132630684791
0.109767036854433
0.109605083950705
0.108427878841075
0.107524908286172
0.106086082949085
0.10509189117458
0.105474932683663
0.103894973637802
0.0994414916658903
0.0970028504902499
0.095051413376154
0.0923182495089227
0.0892267583210626
0.0858166013013133
0.0825133977965442
0.0788184489960942
0.0750726927915386
0.0716236281788268
0.0682038760025712
0.0645951660774031
0.0611366305878806
0.0582437948463267
0.0556151018922057
0.053425667657214
0.0515962488993614
0.0497773843701755
0.0480791780447592
0.0468124423631753
0.046429113630036
0.0450885443351208
0.042120626179913
0.0411300452379663
0.041053769569684
0.039822784588033
0.0386817429619836
0.0381979378239324
0.0375872813358931
0.0384035785673372
0.0390529293925883
0.0357985715293545
0.0344467341944767
0.034529180272728
0.034378073025079
0.0343563188352734
0.0338351786236785
0.0338759231767034
0.0340381048096977
0.0340498718379942
0.034106358395713
0.0322414773605084
0.0306175925296851
0.0310370510302983
0.0310661520747698
0.0301850418211988
0.0299330510921071
0.0299289806696493
0.0294241395410987
0.028779245613877
0.0284975210607395
0.0273752097531146
0.0268529174855488
0.0266050498809538
0.025746792393993
0.0254419587178411
0.0252340554393045
0.0255244008109501
0.0256438138596639
0.0236786195414988
0.0224842645357404
0.0224664335948618
0.0225741175841318
0.0225188097510938
0.0218817465676908
0.0213759262886103
0.0213554688524407
0.0211122485548363
0.0204984110725427
0.0199870179197634
0.0196316415301438
0.0197218237613837
0.0198662277475686
0.0200506012131647
0.0204678041514683
0.0208229265013521
0.0210922905841958
0.0207485940386923
0.0203903521357375
0.0206032947564738
0.0207815160757494
0.020724692076874
0.0202147732200116
0.0203361877705035
0.0210662518011481
0.0211862999924768
0.0201318891692978
0.0201717499202786
0.0203291661888375
0.0205232620408918
0.0206887391859659
0.0206708177069845
0.0206602080766376
0.0207057501221923
0.0207326753548309
0.0209718127862788
0.02080395124451
0.0202973524529016
0.0205487031107182
0.0206643803706829
0.020554050467895
0.0206090711854339
0.0209650852055612
0.0210851338914995
0.0214117691470882
0.0219554569425952
0.0215638300449804
0.0213383500512609
0.0215828441260359
0.0219136023900349
0.0219901430021491
0.0218906442004724
0.0220459307621945
0.022245967517886
0.0222396059393851
0.0225509763388032
0.022882733511084
0.0228772354912076
0.0228678820097907
0.0227033787717093
0.022749691750674
0.0231939643302867
0.023570891347183
0.0236188421044494
0.0236704133591717
0.0239290903714257
0.024295575306354
0.0247465970012249
0.0251496585372809
0.0255450421196489
0.0257599091642456
0.0260643781278024
0.0264742698450436
0.0266123007745669
0.0267745260054803
0.0271603987300665
0.0272010649845655
0.0269337196585011
0.0268167057584064
0.0270212364215831
0.0272971935436932
0.0273552364563006
0.0272741765671597
0.0274590241287155
0.0278001023235086
0.0283244971054926
0.0290262771398137
0.0299272142299269
0.0312388485783847
0.0329697784042045
0.0353384093224493
0.0385329818192585
0.0426380025949523
0.0480680557475001
0.0552425569029706
0.0645885026378085
0.0764844258963711
0.0904037175043957
0.104523943050666
0.114597939466559
0.115904057366271
0.107551473117626
0.0938350027648426
0.0793540683868003
0.0670643552223061
0.0572847156132758
0.0492421598725297
0.0427852139335313
0.0377605450211282
0.0337595334480837
0.0308691334923267
0.028762634771788
0.0270299155245634
0.0255761097718034
0.0245557155965305
0.0238655498947801
0.0232743826310495
0.022754720392023
0.0222914119227509
0.0218814664667866
0.0215922222016851
0.0212938561646588
0.0211244738225128
0.0209378354703256
0.020797247445512
0.0206943747995539
0.0204904503318272
0.0203308020525703
0.0201352959146723
0.0200109317952548
0.0200542200062986
0.0200212072448305
0.0199916453980685
0.0199056525684927
0.0198963012061984
0.0199517582652607
0.0198689573367384
0.0197912393494812
0.0197982405728959
0.01987646097518
0.0200144461739948
0.0201235775432088
0.0201283383032089
0.0201763572638632
0.0202199394534972
0.0202152654642491
0.0200078116460576
0.0199430562703464
0.0200570492685853
0.0201959144191501
0.0203211991947333
0.0202820914514862
0.0204015984086874
0.0206289106460315
0.0207905210367074
0.0209488899944926
0.0212146688636254
0.0215871470256197
0.0220109383487858
0.0224142039885624
0.0228107342140923
0.0231664794382437
0.0234887388735623
0.0240038681347058
0.0246631129599957
0.0251895770403078
0.0256551974074519
0.0261278732440935
0.0266758194877114
0.0272430910812605
0.0278988543516014
0.0285308248563202
0.029252671179418
0.0301707394891917
0.0310407012889804
0.0318626098510033
0.0328379823043895
0.0339559658388228
0.0351625718480756
0.0364973266898514
0.0379329948874016
0.0393587487121981
0.0408076111725273
0.0416943187202213
0.0418285875184687
0.0416027169202455
0.0412846944841617
0.0413879295379907
0.0419832410525312
0.042748692692609
0.0436713185982312
0.0448055476237573
0.0457591014165089
0.0465590955410013
0.0475429654929837
0.0484409361362846
0.0493576259560406
0.0503870525313198
0.0514344053707281
0.0524621447424011
0.0535115087191932
0.0546030488369004
0.0556513811196098
0.0567387301798164
0.0578176077002605
0.0589661558193449
0.0601475380860229
0.0614703537536222
0.0629072303340977
0.0639716733876159
0.0648069368359567
0.0657912828585281
0.0669149864724286
0.0679930002611073
0.0689459976519174
0.0698820778241431
0.0707798812692004
0.0717209501610351
0.0726515545479569
0.073545345243495
0.0744321781825196
0.0754101303762649
0.0762253539111357
0.0770095065989304
0.0777497987813083
0.0783001919979677
0.0789734572188359
0.0796094888197866
0.0801088801759841
0.0807209445916272
0.0813753297637124
0.0821958184201108
0.083080502109922
0.0841878855091812
0.0857588576952658
0.0875563009457519
0.0894810249748621
0.0915021977017793
0.0935589095052609
0.0956863706258763
0.0977678476719294
0.0999243036581864
0.102215444122584
0.104438782023022
0.106691144467273
0.109025675702046
0.111204178850505
0.113484182759641
0.116005981403147
0.118317479323816
0.120567219562079
0.122856683917634
0.124870714433467
0.126670580632345
0.128266107258126
0.129435452345563
0.13028184595906
0.13117582911486
0.131909823787014
0.132449182342919
0.133205841800803
0.133861522926365
0.134394333388322
0.135033671128599
0.135801078889089
0.136638199545387
0.137348981113673
0.137937120638968
0.138435506610653
0.138770733198854
0.139116338717274
0.139290629667287
0.139079532285935
0.138803200609183
0.1385485786568
0.13826502842611
0.137919735934082
0.137515051914412
0.13707584366734
0.136340919446866
0.135193176568919
0.134062353430033
0.133057023364892
0.131741170229351
0.130239545165429
0.128830371289342
0.127495103726665
0.12580949708615
0.124110033605445
0.122497427913042
0.120621612733598
0.118691209895655
0.116882141446314
0.115171565885679
0.11367738287667
0.112249551893197
0.110670860977024
0.109053215590278
0.107453496136229
0.106152556616386
0.105195169682215
0.104202355377008
0.103131849132191
0.102097724304472
0.101369301994888
0.100639397329897
0.0998566433904128
0.0991779120599068
0.0984578938651308
0.0976845006967407
0.0969033893621307
0.0964925572522613
0.0962251687847235
0.0960798142313911
0.0962027755577081
0.0963247369519812
0.0964924497915525
0.0963207075361202
0.0959700459907835
0.0956048545901067
0.0946029187231681
0.0928892196443007
0.0907242437311788
0.0886542302313527
0.0869750556381975
0.0850839613306541
0.0832111598392428
0.081730761881
0.0803016608280789
0.0788472897779233
0.077513773592881
0.0763853256820804
0.0754209135814093
0.0746506269585809
0.0738254734009648
0.0727834329504024
0.0720560864322819
0.0715229618600546
0.0706713954145149
0.0698205889635633
0.0688876732720268
0.0675879953785107
0.0662651881548021
0.0653978201644699
0.0647473682000667
0.0634885509109971
0.0621448698307025
0.0611169765597414
0.0599818465845944
0.0588342773594704
0.0577861599594646
0.0565689979804621
0.0558550807473534
0.0556441513068979
0.055156292197774
0.0547567236381213
0.0545543058223765
0.054033054331111
0.0539049808271441
0.0540234596628448
0.0540935227853179
0.0542815950506192
0.054095270049961
0.0536141545735061
0.0532096072046698
0.053027970490933
0.0531346331171143
0.05350267465938
0.0537140758425686
0.0538237525757735
0.0541056908194057
0.0550417942741611
0.0568233591718787
0.0590979363137043
0.0625522519067395
0.0667259020445066
0.0714115518259049
0.0763783635432397
0.0811663949213272
0.085392196583676
0.0887572232310384
0.0908719158548305
0.091599535710165
0.0926610915057022
0.0938057286782534
0.0946194137630279
0.0963657648703829
0.0989921456215011
0.101449009203913
0.10315283633887
0.104363693603964
0.10490408401026
0.104688361170272
0.104734351153517
0.104338329727761
0.103299229133937
0.102572557208706
0.102144816271093
0.101355261389454
0.100208811300279
0.0990972886036781
0.098377622115268
0.0973059579147219
0.0963790498177702
0.0958078960751808
0.0944234419460071
0.0937956454786006
0.0939360593315873
0.0926019682195147
0.0911997090943545
0.0905343219424337
0.0893587602439194
0.0878118157423063
0.0871020281821159
0.0869697657164095
0.0863948542528897
0.0853376365570535
0.0850165945379682
0.084906680194118
0.08444800751212
0.083989596698717
0.0834620505289955
0.083255341122402
0.0828970613206337
0.0819018221398098
0.0804522309538449
0.0798686936558421
0.0798826453369181
0.078946127396947
0.0785378540123698
0.080182848461523
0.0819175333184431
0.0831958650776341
0.086758178820128
0.091019115717268
0.0909837647034954
0.089258329453671
0.0888265130897956
0.0873615358708282
0.086203002778415
0.0858630143462107
0.0850818686492136
0.0851501567421555
0.0847585817669983
0.083075672748218
0.0821866486025229
0.0814447514143072
0.0820390416150564
0.0847021567429481
0.0836434067337595
0.0821560450664849
0.0810522841949651
0.0787784901810654
0.0800709806624908
0.0818020987680614
0.0818343273337639
0.083871900670587
0.0859888783051116
0.0869067008462795
