1798
3999.43349933624
650.420452594757
1
2
4
0.0150234157270655
0.014849776373657
0.0146555548537144
0.014600705585122
0.0146790566363799
0.0147528320608755
0.0148976855661364
0.0145951710170628
0.0139850425544449
0.0141948653113503
0.0150340540757243
0.0152313482140347
0.014838171034008
0.0143244092401047
0.0143026496263865
0.0149236505109557
0.014806101722345
0.0143051575537129
0.0142887909734669
0.0144499511991779
0.0145733063786012
0.0142767980350419
0.0143483066116658
0.0148427677206386
0.0144742189502957
0.0140958099336177
0.0139385729705974
0.0141795838047923
0.0146981880108467
0.0147904145426846
0.0145800692535628
0.0144430523641336
0.0141585052348557
0.0138859710082917
0.0138581723927428
0.0140369160897823
0.014241743673897
0.0144435100022877
0.0145946234583003
0.0143996698253828
0.014217339655717
0.0139888469186356
0.0138636307923537
0.0139249478014375
0.0136303729476727
0.0137372901105906
0.0141180599338394
0.0137805672036651
0.0137300208281697
0.0143483366150378
0.0142541878951008
0.0135255661756508
0.0129376241272944
0.0125902728266653
0.0132110825269734
0.0138674106078845
0.0140091662155995
0.0141957643862669
0.0136572683748643
0.0134425222669577
0.0139861811087422
0.0139893672047182
0.0142913691045426
0.014737247054498
0.0140671025629449
0.0134294056132192
0.0132581148383929
0.0132920893613001
0.0137832053278857
0.0136530566546608
0.0128375410277024
0.012804284660525
0.0128665714884817
0.0124719037648508
0.0124218735115489
0.0134409480799372
0.0144542591519352
0.0146114704426379
0.01266370163982
0.0111215891930353
0.0118809396909425
0.0127646573642222
0.0124500231467603
0.0120448771645772
0.0125072244764274
0.0131919227603396
0.0128306889308856
0.0122802954638049
0.0123141848112326
0.0127584713884538
0.0128962488446848
0.0131683577807747
0.0133909508615968
0.0133462698019278
0.0133442879508591
0.013089233923865
0.0129305150360477
0.0132574853636879
0.0128357801113785
0.0123682098999995
0.0122992075097376
0.0123543898218182
0.0125156705816727
0.0120146458060388
0.0121225825118677
0.012867947656867
0.0129302517804678
0.0128676327274762
0.0128436828612902
0.0127492009712121
0.0128188871313446
0.0127609985768002
0.012203815427318
0.0121592949778417
0.0126575419583616
0.0130136659820825
0.0133306551209711
0.0133807340829122
0.0127397358386588
0.0122291464087832
0.0122025891484759
0.0125753467398389
0.0124211864563307
0.0120404822997725
0.0122479909345245
0.0124924439273285
0.0125667160657617
0.0129378271684612
0.013093318632592
0.0125634102446461
0.0121844836197933
0.0131157752964232
0.0134774809426713
0.012536083768903
0.0116980909482342
0.0121281894411866
0.0119203545469321
0.0110975958750187
0.0110484834752589
0.0113878315782059
0.0121289838444533
0.0119551816668687
0.0108448107980406
0.0106572442583878
0.0107248357223926
0.0110136245525326
0.011610729456097
0.0116462012303216
0.0119349376290339
0.0120419346184715
0.0115959268165403
0.011757826372581
0.0123293493061521
0.0126208238969633
0.0119465884794621
0.0112040113855487
0.0113690571779276
0.0117774204189797
0.0120722491691744
0.0122334219482973
0.0124133867231658
0.0131650342528974
0.0136924705177747
0.0135902229548541
0.0135451207863423
0.0137573114999798
0.0132964441816647
0.0129773540904234
0.0125206470650925
0.0126894370544054
0.0133635821902909
0.0136339448521032
0.0141556872683016
0.0144602655082369
0.0129010280611204
0.0129270747294934
0.0136141315864507
0.0130159416454552
0.0131354085359604
0.0140667180929784
0.0146276155511466
0.0151967275977366
0.0160067933955882
0.0162055750450909
0.0160723090630815
0.0160983640178808
0.0161230315184028
0.0164427803203901
0.0169932858327848
0.0168202846634915
0.0170602546705109
0.0180042830076548
0.0186560663828323
0.0192741205354651
0.0196042087335889
0.0201719816515016
0.0209865429569746
0.0214027537278412
0.0214755553381751
0.0215304536026796
0.0215981540807987
0.0225113546994255
0.0232968238314848
0.0233329435571875
0.0231670859858995
0.0238343437813923
0.0245337298322121
0.0249166010472035
0.0251575896497811
0.02571662331188
0.0258614719709418
0.0262719824152561
0.0266186447637309
0.0269704094824472
0.026888813956296
0.0275254350625477
0.029466982615828
0.0310581279672601
0.0308941002405694
0.0302710040739273
0.0300574029721059
0.0304214435692738
0.0313849328075792
0.0313016985295047
0.0317930703985728
0.0333506913963669
0.034430333242691
0.035370536106244
0.0361750425882877
0.0364388479375976
0.037262000386973
0.0390388301522567
0.0389909007339464
0.038237148486221
0.0387928065057953
0.0397248226280103
0.0407479913295197
0.0412443258188954
0.0412222434567766
0.0420458435494418
0.0429539166357702
0.0436109842984166
0.0438153555834912
0.0441725669508119
0.0449479617880643
0.0466259310605868
0.047739219194814
0.0480399316113078
0.0489131670526652
0.0500266938645975
0.0499640217918881
0.050131659621951
0.0508301418160105
0.0518764494957379
0.0530268586198107
0.0532968788882212
0.0532745073384504
0.054082058034782
0.0548660118016019
0.0557802073854867
0.0558730459563733
0.0564124095290933
0.058173989423607
0.0588977042072042
0.0586033767021139
0.0589961710477167
0.0604062561925298
0.06073016509085
0.060336677481906
0.0614321711221199
0.0623253818318911
0.0624264142783599
0.0625437816492528
0.0637937934940501
0.0648529840050865
0.0653580678787317
0.066252287862277
0.0682757986019815
0.0685385371451255
0.0677982976864051
0.0688568290565061
0.0697923717432262
0.0705120701022803
0.0710431670575255
0.0708862236039674
0.0710019767639035
0.0716513537884162
0.0732731818012626
0.0740707831153646
0.0747939162477824
0.075110103609814
0.0750727162635033
0.0758192777782625
0.0769620129265901
0.077449548463292
0.0781075619436701
0.0789401605098654
0.0795803299998091
0.0803415478281617
0.080040488679186
0.0803571884005946
0.0808537759792976
0.0810990230941512
0.0823623310621816
0.083194245052579
0.0836276006791998
0.0836138855779741
0.0842084537299187
0.0849044887842848
0.0851465891550716
0.0855284199017328
0.0872167920116987
0.0883598068942655
0.0883911861797072
0.088144256105596
0.0886057883054321
0.0893137745433115
0.0900814524601294
0.0907358689787982
0.0916893405064929
0.0915417436156433
0.0919605073644346
0.0931469898817195
0.0928629886616081
0.0928982551426424
0.094175155618294
0.094708807704906
0.0945129055729433
0.0945146497832148
0.095637305455365
0.0964883996290823
0.0965775452757773
0.0966324155762041
0.096948032326412
0.0971450940434707
0.0978003155769384
0.098846244290425
0.0997689782043199
0.100310903158628
0.100693587135964
0.101180552680176
0.10125639138996
0.101388635121534
0.102461620443721
0.103122406516319
0.104019359060283
0.10485478884402
0.106125065980391
0.106981082354015
0.107245372639887
0.108007451450222
0.108971429369878
0.109297113542135
0.110067497150307
0.111602850696623
0.112789161807425
0.113819756752069
0.114869957800918
0.115576824666232
0.116574333119002
0.117658095813448
0.118966977692376
0.119143948830744
0.118599804848645
0.119348423414918
0.12158678831588
0.122234459705578
0.122409332246154
0.12351546128089
0.124616461431702
0.124943954733712
0.125048956763336
0.12525112375453
0.126202245827067
0.127167091148606
0.127619335762289
0.127878967725507
0.128185272002871
0.128676983577217
0.129458627315077
0.129790412630921
0.129664928157217
0.129974385048542
0.130916588188049
0.131072415320267
0.131158662467429
0.131490991641556
0.131523418111019
0.131823408701355
0.131940609456358
0.130905939755241
0.129933064835865
0.129558653343319
0.129742339856548
0.129486938615873
0.129346105582296
0.129268129315004
0.129322824772991
0.128849435005268
0.128196522218373
0.127792362469133
0.127292961498806
0.126709179934348
0.126261250337836
0.125872657117861
0.125143252968066
0.124666532177128
0.12410802602356
0.123531427915537
0.123717029710434
0.123435824320607
0.122983452033627
0.122580420787491
0.121749643053959
0.121067263945002
0.121180032103742
0.121266291565268
0.120855937341429
0.120010584805795
0.119647669640533
0.119299911640656
0.119094573602766
0.11892558465726
0.118621145625205
0.1180772367045
0.117304347574814
0.117071790367702
0.11714488645906
0.116365531025042
0.115082187136247
0.114777434710606
0.114795354007471
0.114091577695891
0.113259793109761
0.11257243232358
0.112133575488071
0.111297674817328
0.111012788751776
0.109991810311615
0.108733589612337
0.108744994263644
0.10799896360245
0.107030236523928
0.106480603245777
0.105282863239096
0.104251639056779
0.103594726750141
0.102940532361096
0.101978084694463
0.100958108146623
0.100196078295488
0.0994406577019324
0.0987330312213012
0.0981665907239509
0.0972537117021916
0.0963012281266061
0.0955236245213849
0.0952088018500776
0.0945611549031122
0.0937152999534949
0.0931309407823733
0.0921170624457855
0.0908782078733031
0.0903009183476391
0.0899108828312873
0.0898254284729335
0.0897710671363694
0.0890022610012235
0.0881994369891486
0.0878091252734897
0.0874338267786651
0.0873065015570523
0.0871655194120491
0.0867591042791194
0.0856734134303141
0.0854450135125555
0.0858387554584342
0.0858869184630057
0.0855392927088132
0.0850419031349187
0.0849246517975155
0.0853133716424288
0.0853736740940493
0.0852297610947002
0.0850977414157065
0.0851933676798897
0.0855508700178039
0.0861892873963336
0.0864396515668452
0.0861481951119573
0.0865274478074847
0.0874599638783101
0.0871520584390223
0.0863379473011151
0.0860086032025188
0.0862396076492508
0.0860809099643005
0.0855556500554758
0.0855124545910079
0.0855307180903082
0.0850812150796744
0.0846103766943492
0.0843182770737524
0.0840808747498329
0.0837933264888374
0.0833153873547822
0.0825621993822813
0.0820557301982632
0.0812155194935537
0.0800403685467915
0.0796712115125013
0.0796799676125826
0.0787413358716905
0.0775155759710601
0.0767298082791091
0.0759720907279812
0.0755677292901766
0.0752829101608821
0.0745743863130372
0.0736546048007063
0.0726290490415445
0.0719886928730692
0.0715956564253057
0.0710400343735402
0.0705062487102813
0.0698390229450163
0.0694994958534833
0.0696741163688201
0.0691328248399382
0.068442744262259
0.0681192869286461
0.0674608182162366
0.066939903596045
0.0668281171483184
0.0666118578404684
0.0664456393349212
0.0665590708447106
0.0664553093886771
0.0665742757877688
0.0669733750004487
0.0671434465039891
0.0673944013489437
0.06759826356473
0.0681409010444349
0.0689742869899912
0.0696524294701755
0.0702662469029146
0.0709671572036107
0.0717709807346876
0.0725452104793896
0.0732250549818
0.0738764208704139
0.0746426781614653
0.0755383890843279
0.0765295738658014
0.0776827186819079
0.0786969271821279
0.0795544782471798
0.0804283391433678
0.0813276184434642
0.0820164740143343
0.0822682861935078
0.0824742843846337
0.0830019515320647
0.0835994733396336
0.0840405503201411
0.0844617713765351
0.0852564838904713
0.0863790178220866
0.0876024791281561
0.08862587987815
0.0895467423669505
0.0908147207418468
0.0920835320503953
0.0928642866682812
0.0935174858315613
0.094217154091097
0.0946838608652341
0.095183329369117
0.0957946072681994
0.0955502743876172
0.0945611240362619
0.0933413854124537
0.0914287997333172
0.0893907278608989
0.0882214973205488
0.0873952385554134
0.0862386953514648
0.0852130857231534
0.0843735026043575
0.0831355838081594
0.081853562856692
0.0810676526061444
0.0805143639261824
0.0799440085457312
0.0793048402373413
0.0787471327284823
0.0786045445136973
0.0785279903057802
0.0783103965003361
0.078132128836908
0.0780160581110243
0.078096306770072
0.0780607981184516
0.0777290086599112
0.0772195769308999
0.0765778232941479
0.0758405591713942
0.0751390893780571
0.0744072753515795
0.0737299921310248
0.0734827247632945
0.0735416380219855
0.0736764044421967
0.0740856151485846
0.0747617837061298
0.0753765111449169
0.0753283036933389
0.0743341126185475
0.0729686654800439
0.0715741978713922
0.0700695090503374
0.0685618335377547
0.0673112915826191
0.0665505298448909
0.065961464158875
0.0652371208611259
0.0644148183504565
0.0637982463103707
0.0632605507430469
0.0624456943349772
0.0616923311697163
0.061245031569578
0.0606828717553352
0.0599456557848993
0.0595168962014794
0.0593968934196944
0.059051152104032
0.0585778118267034
0.0581231947704108
0.0575806049066891
0.0569937230255919
0.0565491489132279
0.0564650448172754
0.0562102414423798
0.0559183024827052
0.0560207859614687
0.0558910682542652
0.0552819862466404
0.0546128912390552
0.0543628123571131
0.0542841488691914
0.053918546815293
0.053505984592319
0.0532265381177672
0.0530496005491453
0.0531475382054549
0.0531101866085129
0.0527935668212129
0.0522964979205017
0.0519966990099863
0.0518363909619685
0.0514012072833311
0.0510252870793474
0.0509185886865752
0.0507572217169758
0.050439443384025
0.0502424067643278
0.0501392854362005
0.0501069291593179
0.0500454478737711
0.0495980375206781
0.0491326830976942
0.0489293695425759
0.0489141303044072
0.0490168107059565
0.0487674801931109
0.0482420124825352
0.0480922187783266
0.0479532658492047
0.0475975391566276
0.0474899786331059
0.0476127601090598
0.0472331265952093
0.0471444466140288
0.0474980939006737
0.0471194958089201
0.0464943241074879
0.0462901326552721
0.0460544946300148
0.0457535568966225
0.045779370489617
0.0459056066617092
0.0457256295839435
0.0451792494566298
0.0449612455388999
0.0450094199470632
0.0448273125829493
0.0446466864507399
0.0441926708445939
0.0437965544450606
0.0440311511629388
0.0442736011360266
0.0439390357635954
0.0437661816900468
0.0438333617774764
0.0439137287034287
0.043840899268167
0.0434838471494492
0.0432675562623036
0.0431931547977569
0.0429397191039774
0.042900046113615
0.0427757468510423
0.0425567091270953
0.0425849387355987
0.0426770670606879
0.0426097663858077
0.0424688348970512
0.0422226204670366
0.0421634037310602
0.0425243895468365
0.0425003875491184
0.041978549844159
0.0418878179246704
0.0421467800601987
0.04220469688366
0.0418777527752677
0.0416239892447329
0.04140554587876
0.041227712800908
0.0410073482663365
0.0406536104329869
0.0405689021821156
0.0403604689761668
0.0400703524363156
0.0400659754810395
0.0398951711246192
0.0397548436659038
0.0394411270031197
0.0391315212525089
0.0388003099119345
0.0385566190454638
0.0385358851357843
0.0382763027756697
0.0380771727131539
0.0382498627189392
0.0380804631731962
0.0375497771702337
0.037314210928774
0.0371868100645397
0.0369138918767388
0.0367069227297241
0.0363768869285903
0.0359889518230082
0.0357782750052756
0.0360155921618736
0.0359709172239281
0.0355040741606056
0.0353800483188882
0.0355317684627916
0.0355979338256134
0.0356496881169758
0.035010067981778
0.0344934501580824
0.034516915527889
0.0340917896689327
0.0335428057026548
0.0336973060287283
0.0340329243958037
0.0343680381630682
0.034461818825881
0.0340936836418206
0.0338451338563866
0.0334276382379171
0.0330637834087114
0.0332845041363257
0.0334398831599159
0.0333091073656915
0.0334113981064534
0.0326630476938682
0.0320610439240845
0.0323352802625231
0.0326753088377758
0.0329895116357624
0.0330731539913771
0.0326481236967161
0.0320281327449473
0.0318312207153551
0.0322276169151837
0.0324323382043819
0.0321080863768824
0.0320622628123282
0.0318759793009585
0.0318471024750181
0.0318727047433848
0.0316332434638376
0.0315096034298096
0.031271105796784
0.0308389469226904
0.0309004993911648
0.0312179125589866
0.0312237151559354
0.031402935892378
0.0315741042968753
0.0314719833611512
0.0317694769475816
0.0316407170817602
0.0308156988804401
0.0305739047293652
0.0314397832958815
0.0316520296176319
0.0306657804351942
0.0299872933530226
0.0302407782133971
0.0304212486790327
0.0304233383351305
0.0303972650508025
0.0302900739264966
0.0305712548647044
0.0306149100312552
0.03052629848615
0.0303961427889688
0.0300450941808347
0.0297667451336574
0.0297668399858897
0.0299151518361845
0.0294858294509806
0.029347741537519
0.0297045105322083
0.0299029061953763
0.0296829067274589
0.0297039260421095
0.0296293100388506
0.0295416314769948
0.0295557950879118
0.0296467625235192
0.0291523600188999
0.029108002022802
0.0292628303608825
0.0294574530667245
0.0297017310906533
0.029198920230018
0.0282825052170836
0.028133505612306
0.0284679237211414
0.0288774301930137
0.0291028937408754
0.0291522618019453
0.028984365480597
0.0289851957562271
0.0289425867136016
0.0291507205768933
0.0290391370039971
0.0285687737380735
0.0283323744761446
0.028161160124795
0.027927257504149
0.0282859852491919
0.0290023485130118
0.0289382876756808
0.0284092726725491
0.0281122168305898
0.0285574706088303
0.0289576547632847
0.0289557091977783
0.028950977724442
0.0287279738218523
0.0287946173738151
0.028741320852272
0.0287354624206237
0.0289860930605895
0.0291338467304141
0.0292026422879105
0.0288479915973296
0.0284243578445516
0.0278393014095194
0.0271836291322792
0.0279050340738729
0.0280389571324771
0.0275594981458528
0.0276675061042588
0.0276209050827767
0.0269084575263576
0.0268829869735607
0.0274138913326491
0.0279378358176785
0.0283403313146478
0.0284551422644283
0.028492947164632
0.0283738991291644
0.0281669418443752
0.0283781479879111
0.0281271045037833
0.0276667142056842
0.0279016470072721
0.0278842588050728
0.0280920329640106
0.0286982240184387
0.029178093684126
0.0291910572850264
0.0286764381117865
0.0282598133009113
0.0283099765822584
0.0284522250979496
0.0282315792298545
0.0282270977425413
0.0280733645532323
0.027793795445238
0.0279463177404679
0.0278794373304466
0.0275049795353236
0.0271125340532548
0.0266557442774477
0.0271538202130748
0.0274955444368619
0.0271825502712436
0.026820137005758
0.0264587226514975
0.0264196441929064
0.0265021939796783
0.0260586735848167
0.0260291132893296
0.025598551289169
0.0247550087075102
0.0246283743726044
0.0246851229581621
0.0245846064026806
0.0242997482363762
0.0236259929945654
0.0234862736656634
0.0233584390921877
0.0233964799896516
0.0241118165151635
0.0238989378468138
0.023325223933227
0.0232405842743932
0.0231109373967987
0.0227454788400019
0.0229162718483838
0.0228611448534861
0.0219615263044539
0.0214437693245058
0.0208013928236428
0.0210732998309947
0.0213962709672338
0.0218858986371348
0.0217083914520679
0.0209538511637902
0.020478076275944
0.0204997840064166
0.0199878281453695
0.0196138316618609
0.0196329715962622
0.0200843870776887
0.0196945685031949
0.0195155112654711
0.0190303955343096
0.0191187019154755
0.0184387919708328
0.0165128527251893
0.0162983567091236
0.0186389598009178
0.0181529573545654
0.0168918016019734
0.0162516559289412
0.0162714688682476
0.017439097015068
0.0177210380934543
0.0168078502384022
0.0156097188455958
0.016166718425536
0.0180008408203783
0.0173031613800816
0.0155194472818961
0.0145394521825778
0.0143830468008539
0.0137276147020885
0.0130973198572293
0.0132887798533627
0.0140206763415098
0.0152320003513467
0.0153512446462667
0.0142121178728908
0.0143875640191319
0.0133613809041165
0.0124529229937828
0.00989591168155699
0.0103286770876197
0.0135122766266722
0.013414823239846
0.0136040355778284
0.0149803909075573
0.0149689390791416
0.0157173481712491
0.0178903905517258
0.0182216691561646
0.0181894533885209
0.0182102997562611
0.0173304271298098
0.0176862521263873
0.0181580081777336
0.0189847984446605
0.0200749983124385
0.0206843264888956
0.0213336630973305
0.021241519820064
0.0207659654052995
0.0212269387848498
0.0218916381614013
0.0225760886632939
0.0225745488275619
0.0216857957636341
0.0219135876116581
0.0227627125503833
0.0217775661862875
0.0209860566977193
0.0211786563877363
0.0214793231324286
0.0215277366358797
0.0216520675885215
0.0211112694467859
0.0212191823332288
0.0217908727954949
0.0218134719260321
0.0215257402936161
0.0217426885404418
0.0218959069448261
0.0214262705236878
0.0210742291308533
0.0207424468569932
0.0205151076737347
0.0204642807319732
0.0204343198037807
0.0206348361603611
0.0205997935849415
0.0209894337290038
0.020135468617389
0.0184404344836427
0.0184371969618332
0.0188572567243482
0.018675771847159
0.0191871630909049
0.0188058872328697
0.0182748285509835
0.0179374700083947
0.0170010814475513
0.0162620934751228
0.0152230814821732
0.0145211187683926
0.015479525716052
0.0146765428109076
0.0127544487700304
0.0119385405963838
0.0126120701508392
0.0124675375978946
0.0120635159126493
0.0128601450942749
0.0127729215073503
0.0106128530642192
0.0105217922845415
0.0117312038143384
0.0106136797538564
0.00965534226500528
0.0107421952244603
0.011670222309925
0.0119586399032633
0.0122604700322113
0.0113631747586004
0.0126251340281865
0.0150895972020868
0.0142843204100274
0.0136474569069634
0.0144352542677613
0.0159772619631903
0.015235618475776
0.0137348967470059
0.0134180016709017
0.0135399736188397
0.0127751713393951
0.0132269303170386
0.0137330870250007
0.0132237049475127
0.0126761100833888
0.0128030660621911
0.0116193779923925
0.0113827685511057
0.0118157690950579
0.0118605471720556
0.0113133356569578
0.0119192180369787
0.0134803752600179
0.0152437742135019
0.0155232649412857
0.0154119106125237
0.0144941306748599
0.0145562595688956
0.0150231687743245
0.0148299889437695
0.0157023585971614
0.0163254390834493
0.0165015944936598
0.016737494939226
0.0159201909783345
0.0158160341455374
0.0167420053038631
0.0168938006204083
0.0169130532626281
0.0179735429214656
0.0182986116515756
0.0181901247401965
0.0181103917814175
0.0183488412176075
0.0183949372845152
0.0182884387939817
0.0182866176836625
0.0187257012679384
0.0190623357145219
0.0190400124991931
0.0189795095194161
0.018975004261345
0.0192759852648073
0.0197198237518125
0.0198157652682506
0.0199243166912169
0.0197495457084519
0.0193245413235988
0.0195630259618145
0.020016830662679
0.0192979062917217
0.0189611920089133
0.0195743313452084
0.0198039178633743
0.0194054769372647
0.0194768735796882
0.0194110955816766
0.0190681102965552
0.0193196225137164
0.0200643558707207
0.0201287554273646
0.0197113925183328
0.0196020302419066
0.0196218532446747
0.0195620010196634
0.0197537055297783
0.0201013240315919
0.020203440972068
0.019838978453226
0.0195076792684287
0.0196500423691608
0.0197623021951446
0.0196065727584247
0.0194941031890794
0.0195356938363147
0.0197949194654811
0.0203263368475725
0.0204525335088428
0.0196352608347196
0.0191822844212328
0.0191037489406861
0.0190139570413039
0.0191199327812904
0.0196621526701415
0.019966184439691
0.0194890233738046
0.0195029819468403
0.0201156087608448
0.0198310370035873
0.0192773378269134
0.0194597474992819
0.0199633672776125
0.0201962778279276
0.0199581256123859
0.0197929667782879
0.0199849968046731
0.0197456163430508
0.0193400520069276
0.0195057598325337
0.0199876901544683
0.0203245383246104
0.0202303033055703
0.0197529488959895
0.0196898600375756
0.0200469349486934
0.0202485423357417
0.0198785261183377
0.0196283687468603
0.0200243668044955
0.0202687168876417
0.0200685425413534
0.019995988155385
0.0199943717202043
0.019894639714557
0.0199323345169712
0.0203080965673448
0.0202652775688464
0.0197952410741666
0.019401241802245
0.0193451989223244
0.0197767264274793
0.0199408302576218
0.0198159728589183
0.0200473158229838
0.0201369015239912
0.0200651112944327
0.0203587460646866
0.0208377737606333
0.0211452472628632
0.0211050761414359
0.021067844206555
0.0214856888368042
0.0220727342092505
0.0224906521698177
0.0226055231439865
0.0232449034417146
0.024170516154751
0.0236163855876979
0.0230834550899713
0.0232764034024334
0.0236187598851038
0.0241273812651508
0.02434293484424
0.0245289893002633
0.0254568329305136
0.0262542063705423
0.0263362374575875
0.0269966940429806
0.0280666752488554
0.029774620014705
0.032143610646783
0.0346327524850656
0.0374797937168101
0.0407528611708228
0.0448432387368774
0.0493852422029127
0.0532666427871239
0.0580048633260695
0.0627121643615797
0.067389884032842
0.0725799354609902
0.0777746071876736
0.0830411256084176
0.0888782951052667
0.0944465814455448
0.100866258789956
0.108709358470595
0.116734851422675
0.125858701957973
0.134862091956186
0.144117382808402
0.154391468273242
0.164672228282181
0.17473249218286
0.185448637396355
0.195733500022703
0.204610066727423
0.213487032949034
0.222790532129465
0.232636539320975
0.237946366347902
0.236763621016407
0.241584424635214
0.248110079321993
0.24960013903903
0.250294225960239
0.2530561548567
0.25605082134403
0.259875540901976
0.262453318691095
0.258482109161123
0.256032179578234
0.258236878442574
0.258911241121923
0.255777045866903
0.252306371639892
0.245410488085542
0.235308051980379
0.230897369997657
0.22693050008969
0.213285345410311
0.201559637224249
0.195677385930129
0.189657200011688
0.182277727953771
0.174569328738562
0.167988778995056
0.161917904310826
0.156153454163948
0.151188799857551
0.147073276872005
0.143434305658464
0.140257769712741
0.137785020127983
0.135789039020488
0.134111624188127
0.133300308214291
0.133346647497253
0.133874348750571
0.135153307017255
0.138881812320518
0.142363004214086
0.14185687010336
0.144399368131123
0.150908377281784
0.156101194975012
0.160071589238635
0.166141669456664
0.173197698256296
0.182259807758802
0.193486018764673
0.194573211068198
0.195601396357818
0.202560063499423
0.209588460628634
0.216470403201639
0.221914042900168
0.227273709892078
0.233159711836945
0.237498924120964
0.241523351053245
0.236124813701077
0.23026436190224
0.233962004006351
0.237267633717943
0.232606940962172
0.230706015915484
0.231513559639574
0.229651906794524
0.226739715530381
0.226829367508223
0.220328555512088
0.21385119210299
0.211866223014071
0.207382698921401
0.20455088507054
0.202113610051516
0.202360965761437
0.203060262284927
0.18427221099816
0.169041305707183
0.167435998551571
0.167786736359491
0.165506782399594
0.157407928039086
0.147056143425255
0.144116504615256
0.144067590300522
0.137677575348437
0.129562988177867
0.124800172471374
0.123362950753797
0.122628765085986
0.121752532866801
0.122829205324117
0.124963816844492
0.127531042179398
0.128392395199266
0.127997418904644
0.132360745815417
0.138787536324189
0.142536315181027
0.142847550600856
0.146615267313315
0.154399815342501
0.159364485832845
0.154480327956314
0.153904969295035
0.157460887231749
0.160104734975093
0.160444602815928
0.157914287908425
0.156471995469918
0.155886706645025
0.155110676289266
0.156296385304154
0.154921005602352
0.147136943972064
0.144198027342559
0.144553105143477
0.143511742954938
0.141928041611551
0.142453411762299
0.142892649987456
0.143903777572182
0.146685464153528
0.14467109478928
0.141737091433734
0.142313132136012
0.143997927813943
0.145606796422977
0.146826159555202
0.14881313562696
0.150606412986962
0.15130902515048
0.153392638995974
0.155978931584138
0.156081288725136
0.156647366392787
0.15557012467739
0.154441216768668
0.15634798216027
0.158638942942227
0.157923099402809
0.15682203055138
0.157541311483567
0.158051020615425
0.158001268159935
0.157754451284713
0.157733847698863
0.155343920188629
0.152064935904683
0.150369104977133
0.148218108818766
0.145941771788263
0.144578736477607
0.141471070484005
0.137545976913297
0.135912658583766
0.135862126551435
0.136146231998689
0.136488774560132
0.137725036027923
0.139698262535569
0.141697037989518
0.143640343383178
0.145616136641646
0.147671186041956
0.148492242817383
0.147237793324047
0.14610775821031
0.1456609172251
0.144879585934404
0.143124316479139
0.141114921236366
0.139444507423332
0.138191000178145
0.137435138250446
0.137317382718726
0.137258051492963
0.136946579538711
0.136941528266701
0.13700848317
0.136533314864487
0.136023025252225
0.135503622203846
0.134843641014488
0.134234914405183
0.133739908698032
0.13331678701567
0.132943489269526
0.132622684784097
0.132543063494454
0.132961213903359
0.133814213572296
0.134858229724897
0.135850162081679
0.136689509332363
0.137460301049936
0.138060370935356
0.138382868459401
0.138244891037751
0.137953797957405
0.137626175830059
0.137385381541724
0.137074503111186
0.13695729265813
0.137215082007923
0.13779162286154
0.138567521986153
0.139482230789296
0.140758080041128
0.142412447671688
0.144431406688596
0.146759647990167
0.149311134806521
0.152143697497001
0.15531336822043
0.158808518295317
0.162412311871172
0.16608851978245
0.16969902577044
0.173186559026977
0.17631274517798
0.178783303678734
0.180452794198744
0.181241212744544
0.181128379636538
0.18003639827617
0.177836755331771
0.174731914386172
0.17081186422883
0.166512751626018
0.162219023140787
0.158241450198355
0.154781837335492
0.152022608414386
0.150101838621557
0.149172246485364
0.149096849099824
0.149340293380272
0.149310976276894
0.14840039592466
0.146378728303655
0.143479433421228
0.140159213311959
0.136673913536094
0.133370577056381
0.13041825916135
0.12766331995429
0.125271984439019
0.12336363452173
0.121849977513287
0.120978816267752
0.120916246917699
0.121667198660905
0.123158088659675
0.125193178918394
0.127371514195945
0.129548267730227
0.131976027087466
0.134520161544684
0.137005048455714
0.139384981286434
0.141426138213662
0.143398538466091
0.145641164055875
0.147969108214406
0.150284945765034
0.15244588342097
0.15411771635015
0.155263966428113
0.155996707976985
0.156379133864903
0.156579238125436
0.156741226371546
0.15687600797649
0.156922301288716
0.157225598130206
0.157973639753189
0.158962767706913
0.160111116662577
0.161354814073884
0.163111709264825
0.164933230679914
0.166367653478699
0.167762085603141
0.16918890930463
0.170433782777747
0.171402050424524
0.172173832659148
0.17318219061597
0.174488127653841
0.175869194603136
0.177767097052583
0.180140015342767
0.182795662655053
0.185630977976894
0.188739514818353
0.19230381713073
0.196770804480938
0.202161314399384
0.208173460766611
0.214887402506996
0.222379177179925
0.230323098723101
0.238396052092056
0.245503571938364
0.251337683850121
0.256022958114371
0.259294229733611
0.261370679059387
0.262832101280155
0.264016101597151
0.265426353347634
0.267028025416618
0.269067285156782
0.271391262572473
0.274087400956377
0.276693420564545
0.279179424929273
0.281497795004742
0.283388311774076
0.284715514236228
0.285625845980899
0.286984432070979
0.289044456509352
0.291130308079902
0.293583425212824
0.296381570258766
0.299229190357595
0.302174594063728
0.305077084237694
0.307175340161391
0.307994148575768
0.307515905324235
0.305927359983055
0.303230774223704
0.299717880507426
0.2954994554972
0.290552080854851
0.285311236490821
0.280172896523408
0.274782722417983
0.269075448461063
0.263097859961406
0.256968815947132
0.250818756110694
0.244671349014138
0.238499429784516
0.232868131137181
0.227692994549733
0.222754731895217
0.218269559642566
0.214268160449468
0.21055869482821
0.207419983688896
0.204769093509516
0.202576414009825
0.200894020015694
0.199368939715758
0.197844502157704
0.196407949421485
0.19508184240477
0.194072492369003
0.193089191077907
0.191991290625842
0.190766985062527
0.188928240569146
0.186278362425927
0.182968997175674
0.178757776410449
0.173982805485798
0.169125620063437
0.164473228392718
0.160286896619047
0.156496117367757
0.153028413718745
0.150104686529269
0.147594295821284
0.145683019434224
0.144164045747964
0.142611011983393
0.14128517547568
0.140164557157565
0.13919180111652
0.138616302031368
0.137793816548861
0.136754509329341
0.136029492508821
0.135336053080911
0.134597798644401
0.133944521675512
0.133362315755341
0.132703399507008
0.131998783619429
0.131106801610906
0.130042027178997
0.128734908533167
0.12753334059207
0.126370472292888
0.125057204816396
0.124031193345827
0.123336925681922
0.12276078515098
0.122383983304608
0.122056780895359
0.121722931959038
0.121351457984766
0.120789366094944
0.120071246508368
0.119665921395531
0.11943103980163
0.119249213649421
0.119588797959605
0.120015398647706
0.120097100537372
0.12007163630998
0.11947341595159
0.118612194248266
0.117604927381397
0.116606921155444
0.11550779839137
0.114624167851168
0.113934244447727
0.113314867604802
0.112637987855303
0.11208770827524
0.111896791408754
0.111598897230539
0.111047168071814
0.110755468753142
0.111064552211518
0.111520710838444
0.111932818625555
0.112724900940424
0.113448882342919
0.114635571654449
0.116433261989922
0.118508546821636
0.120484597682134
0.122170261614213
0.123717650461625
0.124938241554973
0.125485009723405
0.125516515240335
0.125932720126954
0.127045664183684
0.127864579463151
0.128773326469425
0.130373032286486
0.132041429568268
0.133222713372079
0.134414840207918
0.135955589306126
0.138151495231746
0.140988895501272
0.143944507535725
0.145956121323847
0.146605733752043
0.147110075255535
0.148168732137025
0.148610291003089
0.14850005352251
0.149073124398193
0.150088358712154
0.150986218779509
0.152936863653448
0.15517991682811
0.156822997979336
0.158140501234216
0.158885935515465
0.158822276662582
0.158408359093186
0.158984810292954
0.159888683337914
0.159597906014107
0.159449501819035
0.160448715872678
0.161348888491824
0.162330219214466
0.163775494474397
0.164468303875952
0.165787273934325
0.167670247913712
0.167961850534336
0.168144351555551
0.169777462106572
0.170935406733981
0.171596025744135
0.172745256235047
0.17327252599691
0.173544866808233
0.174861799151043
0.176224433431685
0.177839557639317
0.179837030939957
0.181105327143709
0.181684763031479
0.183475368473831
0.186184207241901
0.187791316673186
0.1888532188059
0.190989920955537
0.192864447405626
0.194150515112347
0.195832727055784
0.198952068185369
0.202286023927758
0.205559724952263
0.20889263323963
0.211474409592553
0.213899020010306
0.217433273896206
0.21875250441143
0.219103720752993
0.220824106820567
0.221785205717003
0.222654080949784
0.224131143568869
0.225719657161335
0.227614480194235
0.229597148265962
0.230642059685254
0.231757360781388
0.233060618020776
0.23349499851038
0.236466882468986
0.241054987417476
0.241503507975279
0.242324554578344
0.24326563610458
0.244947662314181
0.247877793777139
0.247738608338506
0.24949333103263
0.252708881349123
0.251365860131695
0.251028865797838
