1798
3999.43349933624
650.420452594757
1
2
4
0.00108582194264219
0.000556754002130349
0.000930490404611033
0.000894278620607251
0.000738671248455569
0.000896018651303037
0.000905811180228276
0.00109067149123162
0.00150175924714639
0.00157755068104049
0.00151424505415624
0.00170841572660058
0.00205621977972322
0.00203248703065415
0.00166417703912794
0.00140377037586245
0.00105068963939899
0.000602762264129762
0.000535253477358372
0.000803117858719522
0.00115257303973224
0.00113837189234588
0.0014192067096927
0.00195191487741664
0.00151242056841905
0.000710532427112221
0.000893826026848473
0.00141891950251686
0.00125268581886242
0.000996757551081419
0.0008828466314594
0.000683223220164698
0.000628966542856018
0.000809938199935811
0.000852365067817619
0.000700162578098632
0.00114562254717757
0.00176372625450391
0.00172517154374499
0.00172285379461855
0.00136928672276273
0.000805870316138875
0.000768068360026903
0.000716822588259059
0.000905588224391256
0.00104105249984274
0.000926381653022743
0.00100939388990528
0.000885877735474381
0.000919953937532551
0.00151637616856778
0.00157233964549631
0.00130077232146407
0.00145291415566009
0.00124992895364053
0.000845076890620808
0.00106079638369924
0.00154823057007535
0.00169053167514043
0.00160314491649327
0.00136725687621411
0.00113491581675383
0.00128160340510731
0.00119519790158341
0.000613194428064396
0.000817498956607588
0.0012411351177136
0.00103223765943019
0.00102596234158129
0.000791739272829873
0.000911998461166846
0.00152442550570836
0.00158696638899844
0.000938844588029884
0.000703500704214496
0.00119078237973645
0.00183341181745733
0.00229896537012012
0.00131715961383431
0.000451006051866669
0.000826928377944
0.00124068137686535
0.00118867999290262
0.0011147480264171
0.00136298191752052
0.001541723547417
0.00165792874260492
0.00210802030739935
0.00231959564364469
0.00144916321314298
0.000672762395230346
0.000772540037372309
0.000164270041295763
4.10087213642338E-05
0.00112112025854787
0.00126305916157605
0.000726549181573128
0.00152913572937505
0.00183611700598036
0.00122276795953405
0.000917908451780625
0.00122007903070513
0.00151703099764916
0.000831357068666266
0.000794001461663052
0.00115449993183232
0.000839622991565927
0.00106170942940629
0.000651084418232397
0.000264348641414075
0.000407518957485002
0.00031781503521944
0.000379348717906329
0.00108315996386845
0.00166400732212119
0.00166021953248665
0.00141338399228813
0.00115139377108875
0.000759925837081341
0.000487157489556069
0.00110579095217664
0.00158335238364445
0.00159036396629098
0.00142844956630513
0.00112278681473618
0.00123452078032405
0.00143426133884211
0.00159027027664125
0.00173256464617838
0.00169701401746949
0.0015221785466959
0.00174535579559545
0.0017043738471562
0.00115575430005187
0.000981758641157123
0.00185863378294496
0.00151965985099162
0.000653306545449108
0.000687347028138831
0.000905918502912217
0.00176153796504687
0.00202348851215272
0.00164791605580356
0.00136452510081451
0.00116894287368654
0.000994706739157941
0.00125475796674807
0.00154167869557035
0.00156459267076942
0.0010743877154312
0.000640115586172373
0.00111953316503357
0.00185947326872779
0.00226778131699529
0.00214988348684338
0.00156702786826906
0.00123947267589544
0.00151891127505201
0.00215197385072965
0.00236570678808479
0.00210208416869572
0.00202988802090763
0.00257107432967323
0.00272856645982429
0.00289712859244489
0.00286639143267617
0.00255135779426059
0.00247993354674579
0.00270796946413646
0.00272644200474916
0.00219838875377963
0.00204574045923336
0.0032547294505686
0.00382280147949923
0.00279530589927311
0.00231231425970446
0.00238700562118753
0.00261817156407183
0.0024733328716933
0.00263338457681438
0.00270038414301695
0.00201248780161435
0.0018955401137536
0.00225276922323785
0.00236132493423505
0.00294540930105533
0.00400012332321315
0.00425042474203951
0.00356762407296293
0.00298792716168466
0.00307488255247425
0.00345337601040685
0.00338471199694628
0.00340099500792473
0.00367758636757737
0.00355086836766272
0.00356354914395063
0.00419466118711911
0.00466004091377936
0.00443719181391254
0.00446162301836692
0.00465646608655677
0.00496053598461815
0.00459990969859849
0.00428535416235389
0.00490008250794306
0.00455244426579451
0.00395072618496291
0.0042121767290683
0.00364741482930661
0.00298740734009085
0.00332685282478855
0.0040888573424147
0.00525966519297735
0.00546880476817005
0.00467859645393493
0.00447645310279438
0.00436961513205477
0.00343236985329606
0.00368172517674813
0.00478623832718367
0.00375739690634948
0.00273122678042473
0.00291694737544325
0.00298686588963662
0.0023736684138088
0.00297769426866413
0.00419654012732764
0.00381721600934293
0.00340259466785594
0.00416933834468799
0.00363382529572227
0.00388089137587133
0.0040030677417757
0.0038118664132754
0.00358810988312477
0.00220218489765098
0.00182497424570366
0.00270241890205686
0.00286846849253885
0.00261811335812116
0.00309440341276945
0.00294102795078162
0.00315967472614324
0.00279333984576733
0.00321908446376684
0.00447358046483233
0.00413965358960203
0.00290479754854456
0.00308473674350481
0.00305730724099518
0.00227534259093995
0.00270712509318945
0.00370116476763853
0.00361856559034711
0.00266678892795958
0.00269303958160135
0.00345494494071325
0.00351208444461636
0.00356522767934547
0.00286029592936388
0.00287778323608848
0.00329861458015122
0.0030942588185154
0.00307771116346583
0.00340434038907251
0.00334170610576809
0.00324081846338889
0.00328034441304065
0.0031823859320797
0.00302239662130008
0.00343229115521839
0.00326119470731068
0.00345066273499266
0.00324557175224114
0.00307841781270035
0.0030641421547282
0.00276142658930232
0.00218236521430622
0.00314961864764215
0.00321356796233095
0.00315066651069752
0.00346040307721808
0.00366599843512377
0.00332612851684527
0.00320994527972182
0.00375038827998379
0.00327988623081352
0.00281691384696344
0.00271741314424789
0.00246144188780728
0.00263878282513738
0.00322978653021591
0.00460295791320216
0.00487984376514672
0.00368456434842469
0.00296555798374012
0.00321969165610265
0.00271475321327552
0.00253370008971418
0.00344491795426107
0.00379784699334729
0.00378733717746388
0.00406521286120607
0.00479887215010129
0.0048838040731888
0.00389397970264733
0.00316427459101373
0.00279055944405585
0.00302266759156408
0.00370144757861494
0.00394182854554337
0.00336191911234477
0.00332636079791571
0.0029402758902455
0.00260941366328011
0.00323864299982287
0.0036624198321512
0.00315181995925249
0.00304516312604707
0.00299075629427666
0.00255899574676638
0.00223350237085569
0.00295414117598957
0.00417425208408313
0.00434003125451568
0.00398556346063095
0.00402340749732398
0.0032995552518864
0.00247511521782537
0.00273560602978657
0.0036004426984814
0.00391781733525206
0.00374202441978661
0.00362849833322178
0.00339964424613357
0.00313501944716261
0.00370871200960744
0.00360225101894253
0.00333070214692587
0.00339666544717887
0.00313850107198648
0.00316763515350511
0.00318655532472447
0.00345916052899033
0.00349750439227439
0.00307663205481157
0.00285565553040254
0.00275152822074874
0.00249297045040449
0.00254323285180105
0.00338189151168413
0.00401161698619216
0.00396971631241265
0.0031635507830013
0.00314631952643057
0.00351824812665049
0.00339586160317585
0.00323619466027934
0.00391146745497203
0.00393193719483217
0.00330342546373331
0.00351520333561731
0.00388059195617572
0.00335533518040646
0.00356390472216991
0.00386807272465911
0.00315280626637319
0.00298452270273251
0.00315012517564873
0.00303385564324078
0.00306324641096443
0.00308229758462132
0.00301492690456644
0.00330940207488087
0.00437776392917737
0.00396850849661479
0.00307224684167389
0.00287770834325936
0.00352356883575338
0.00345722769625914
0.00302952850271183
0.00280820830534205
0.00287582814810257
0.0034271127044019
0.00362006249658518
0.00307379059053115
0.00303606190228459
0.00350891519125754
0.00312218297444348
0.00273818927682576
0.00277293443337456
0.002886939964759
0.00349118287554895
0.00386297693822986
0.00346226288899123
0.00330843430818949
0.00371196809498213
0.0033680284312552
0.00286326966793883
0.00270555048551319
0.00282139167756305
0.00284678571625333
0.00295604386691194
0.00329111294110177
0.00323044055079122
0.00294445753033278
0.00292466115609054
0.00308069402834239
0.0028033762636639
0.00261253667843463
0.00264036167434398
0.00285988457877754
0.00331889595877916
0.00342462809593664
0.00307841021722846
0.00241976815396902
0.00203940432809794
0.00226985998518123
0.00260438249369117
0.0025687575740069
0.00259327551771531
0.00286755371611224
0.00297100737349522
0.00344189737090246
0.00355150484333332
0.00319750196236791
0.00282142180866449
0.00299940117776385
0.00289351001020846
0.00230557543437055
0.00211178740174744
0.00220412545899162
0.00235562634116782
0.00278282678930035
0.0028044328810725
0.00258911673566336
0.00251538082386854
0.00229322907881105
0.00221182732574077
0.00240206522650659
0.00264016734932234
0.00298651851830442
0.00320155129123487
0.00283004452786341
0.00221409909881716
0.00240230815733671
0.00267724237220165
0.00239651213004919
0.00233344249973755
0.0023369727361403
0.00216678077616333
0.00201480895909022
0.002017047261544
0.00210873036833207
0.00218235852307089
0.00247090633279066
0.00265120634899787
0.00211820850219656
0.00178165561620014
0.00177116772346865
0.00185375331448834
0.00201097986412392
0.00233836863068617
0.00264703595351929
0.00254692447809033
0.00267029291601601
0.00296655208123933
0.00291392268679944
0.00254993543358518
0.00217866713319283
0.00204481152196584
0.00207149511139248
0.00213478813207502
0.00218431496361807
0.0026079417048351
0.00240859663110796
0.00150988356039366
0.00137126759586428
0.00173819502881304
0.0021607134937983
0.00272686525598252
0.00302962983459934
0.00244522973438912
0.0018033633284873
0.00205965301203237
0.00263520923091917
0.00229122403176765
0.00178534094478298
0.00209130894518614
0.00246466243672809
0.00243477168391262
0.0024754842708484
0.00232788787946661
0.00227197879437583
0.00300493703178808
0.00329924863100336
0.0026940519499739
0.00232610420601528
0.00231479680979783
0.00219985860716411
0.00248671761613752
0.00279912216398082
0.00290099052423248
0.0027193666034112
0.00245769986210735
0.00268312596843343
0.00300494939739968
0.0028153172867717
0.00245160788631331
0.00256858817541964
0.00291536183390927
0.00300398235471794
0.00300775067538153
0.00307001957141358
0.00298616164013364
0.0031479223403737
0.00310173544459541
0.00285060159647706
0.00305136503341219
0.00303549947649866
0.00262179922316951
0.00271840962068853
0.0031540938139452
0.00335987716272918
0.00338134116109172
0.00305930283101996
0.00307071406310048
0.00346296978603731
0.00342098478185072
0.00326006520501666
0.00322466106363803
0.00321426120811219
0.00339491353379604
0.00356834371223139
0.00357345733565865
0.00359320062155692
0.00400174399155264
0.00424138964073227
0.0040278140116077
0.00388177296113186
0.00417881407425214
0.00439863131496454
0.0043731112476255
0.00452491300257445
0.00494496318350708
0.00505442089830697
0.00520170315463214
0.0057626788416301
0.00636146574190886
0.00699912576362103
0.00739939562663073
0.00789469493061531
0.00861667095639425
0.00940859425774319
0.0100011489541376
0.010684066901913
0.0116506563938419
0.0127079550117792
0.0134457488928483
0.013905930309725
0.0145116380546357
0.015109669871406
0.0155435098807512
0.0165057354676399
0.0181612182391192
0.0201790584697348
0.0226666171714881
0.0258267744739295
0.0294333446585232
0.0332700546187071
0.0379724546310156
0.0435647491750237
0.049625897063888
0.0562188724567323
0.0634181501336783
0.0717516061726907
0.0810342715174509
0.0904805696042057
0.100572949704246
0.111075465581482
0.119751591463521
0.124482832751015
0.124785136000645
0.121712881569494
0.116838331614982
0.110873026447086
0.104669067072072
0.0991446242025436
0.0942293247061918
0.0897268800963737
0.0858769207535514
0.0824479807327874
0.0791753360357728
0.0759903691544169
0.0724147407881881
0.0686860057552034
0.0649841623813477
0.0614208509052
0.0580117571679485
0.0543760742485179
0.0506401043046534
0.0471785810283674
0.0440608208337258
0.0412957261757817
0.0389361709974877
0.0370052434591282
0.0358129394065492
0.0354103764237325
0.0359016032921366
0.037581151592333
0.040724643648943
0.0460864519317924
0.05444157813969
0.0656544586595654
0.0798604900168224
0.0971677091023943
0.113466105558034
0.122128663584475
0.121523068644451
0.114156594944819
0.102734619309537
0.0905872507490809
0.0797272335863651
0.0701820663999966
0.0620201590316595
0.0555385203467129
0.0502697627205742
0.0457478093572123
0.0422228967286418
0.0394185867500493
0.0367206951015572
0.0342781841397636
0.0325059654480205
0.0309441419174981
0.0293032545441528
0.0278383169012244
0.0265958844533276
0.0257012000040353
0.0246022781368303
0.0233045163001804
0.0222117347817385
0.0213884451421509
0.0208398297464565
0.0200934179707126
0.0191201701990428
0.018396173125144
0.0178876381442691
0.0172882277285229
0.0168239371007278
0.0164766656749588
0.0158915677720955
0.0154288955147634
0.0150781152941065
0.0144448706304477
0.0139363267829293
0.0134591567937958
0.0129036115487424
0.0125185010077607
0.012356894970471
0.0123523650318341
0.0120998238727129
0.0116529473292636
0.0114356969927842
0.0110666166912663
0.0106305888643354
0.0103432649423249
0.00997410613507912
0.00998173640962247
0.0101245217423528
0.0100044743021086
0.00991837707090885
0.00981057244654511
0.00984373322046991
0.00963563682180083
0.00933522716545486
0.00945350297433967
0.00941520578910736
0.00921178012156533
0.00911699552846134
0.00884553616015315
0.00863023039802098
0.00863785677475532
0.00848808074533617
0.00825641109952995
0.00816001252330805
0.0080600459544652
0.00792494389428606
0.00789193231904207
0.00787198488180607
0.00781488108923592
0.00758905067195009
0.00729634991572234
0.00738969835585028
0.00747909911079446
0.00722082565793056
0.00702977944572906
0.00708625490237268
0.00722862565596403
0.00730516137329153
0.00694610779035963
0.00664310380704002
0.00676536397303474
0.00710579469822749
0.00738926544575182
0.00725290771634477
0.00684879976427469
0.00672727241573582
0.00683394628360479
0.00678109598674326
0.00676961033761993
0.00689964373948513
0.00710234982169996
0.00697921646412657
0.00707209745829251
0.00712069466486403
0.00708146637611368
0.00725796369423558
0.00730223724679254
0.00718593954708579
0.00715962230927058
0.00715433962811868
0.00717232618542866
0.00719716364418338
0.00713281645007304
0.00709009910781234
0.00732522697287003
0.00728064731096926
0.00700284463827235
0.00722025822468098
0.00758353777043903
0.00739264408637993
0.00716837989106023
0.00747003729925456
0.00739329206743156
0.0070380657915638
0.00714648389866211
0.0071647808442778
0.00681897416808843
0.00628179088574694
0.00614657531499225
0.00636239600638709
0.00628348444621004
0.00645316747964571
0.00643413790784744
0.00604310721191116
0.00604515414795099
0.00628429894535547
0.0064241362717457
0.0060547493108074
0.00553335038469091
0.00537311403356652
0.00547776705926433
0.00538753397406113
0.00516361030791463
0.00519893854925747
0.00513686836228415
0.00516765267485607
0.00525389532590007
0.00491942824634793
0.00445283632126782
0.00486343606113072
0.0052641815973119
0.00509568037822188
0.0049502297837151
0.00465072736248166
0.00460926885386042
0.00464517706084624
0.00464788479930583
0.00454168514324161
0.00395915843365077
0.00375011509360334
0.00413109762545084
0.00426917292495066
0.00423596087935181
0.00420829112588469
0.00445387393029577
0.00472722275488757
0.00445475684528472
0.00418542035451078
0.00422108767337093
0.0040940554256991
0.00367480167131002
0.00369804484383812
0.00410603962525558
0.00389750219316188
0.00347307010612873
0.00362707375676578
0.00369829476060696
0.00387292382235384
0.00415645026112022
0.00413691318814466
0.00402988619969495
0.00366632690039714
0.00366111442044829
0.00383522378979061
0.0036953493513159
0.0035982343079857
0.00374146173247417
0.00385505219438281
0.00356247060405082
0.00322023294449789
0.00321232499975225
0.00341395553097171
0.00324232726800473
0.00326982738962658
0.00325416292000719
0.0030179074557713
0.00322562187507143
0.00305759247785575
0.00265138993184778
0.0032474035636077
0.00382596748955841
0.00394654820020947
0.00397308827900591
0.00399473690882254
0.0035666214704221
0.00337025561232563
0.00375117866993858
0.00361031800359024
0.00306961752163471
0.00318749903974716
0.00388735534089612
0.00378714631472108
0.00329680305289313
0.00326811787329313
0.00363891599154554
0.00375731378812185
0.00366495826543386
0.00349957003164064
0.00339100496299822
0.00332819034125414
0.0032852361023402
0.00343861538649666
0.00340944460692899
0.00318456422108745
0.00284732102445655
0.00271003498036239
0.0029337383281421
0.00295263437736811
0.00282801362814708
0.00313092643221479
0.00320065615018636
0.00338575330463133
0.00319867056819708
0.00294544188081225
0.00308635076687124
0.00285510553992069
0.00261071590278438
0.00288890684133193
0.00292670855860281
0.0028312742058452
0.00283750784699002
0.00258089137519543
0.00305118517475134
0.00346095553438245
0.00300149072780125
0.0026027294632833
0.00262402219777239
0.00283928599855438
0.0028193816976103
0.00248117173145655
0.00252240399308911
0.0028666625655013
0.00276474434142535
0.00261132145555216
0.00297804008163294
0.0029784796644752
0.00298697940172622
0.00338650824212018
0.00387971747281826
0.00362524980972102
0.00334472216209807
0.00333912309251626
0.00324105255076043
0.00304597908151838
0.00293057125012934
0.00325833268203167
0.00328512701898926
0.00327030571155429
0.00342514592645656
0.00363081044598513
0.00330173171907022
0.00237172114204243
0.00208550620872601
0.00254382727908739
0.00296623112341332
0.00302517399902645
0.0030161272716831
0.00386333074032275
0.00412812132586375
0.00368975003521796
0.00358401445607987
0.00354128726563982
0.00370097964437859
0.00325931176040929
0.00302556059279601
0.00370317583965393
0.0042112180077625
0.00470044754090481
0.00464658674437999
0.00434109738522408
0.00457105135517464
0.0044401770328132
0.00410589947125037
0.00391107374463349
0.00371010787901009
0.00380175430739735
0.00399429527670722
0.00380452244947793
0.00359416755938083
0.00381261976064118
0.00363773518372291
0.00373419546581015
0.00400361097999149
0.00424244020316783
0.00433055053840567
0.00409334436365059
0.00399381676457163
0.0041058097113598
0.00442396783305261
0.00435380393882942
0.0039575690520425
0.00362622051889171
0.00367041381843885
0.00394910489348201
0.00411353887063231
0.00369800634869291
0.00394122614543571
0.00393784247662055
0.0034204571571222
0.00307475282511217
0.00309313521292672
0.00375104070166204
0.00467294035564108
0.00465414864923881
0.00424443205783428
0.0032361945757982
0.0027813462355436
0.00314364580958343
0.00275182813325258
0.00260344892113916
0.0034641610452733
0.00351324670576302
0.00375295511728132
0.00390345492594651
0.00365690203307382
0.00310155892125712
0.00344950543867207
0.00386671891080923
0.00390139386796174
0.00381081355821175
0.00384794111280433
0.00357004141783303
0.00252048202229233
0.0015913947080116
0.00180877735500113
0.0029850153139313
0.00311812641360064
0.00260845322620078
0.0031719856134625
0.00379735877832513
0.00244132949064234
0.00135666451311728
0.00220060731951904
0.00295443338084458
0.00374839205301182
0.00291575806226032
0.00224597545263673
0.00327024327868713
0.0036144415857552
0.00311053402253589
0.00439761968922911
0.00500339504657111
0.00467331319620553
0.00373040725071305
0.00287150810855209
0.00270996441832439
0.00376479867679594
0.00408918854050661
0.00276092389653485
0.00166319094983871
0.00101342869993887
0.00241303140423037
0.00376398340252262
0.00314392052612939
0.00323734099517561
0.00280064180936275
0.003316504814375
0.00328603447185438
0.00319772697088113
0.00244602323887393
0.0010218525512734
0.000927211514950125
0.00131310046144
0.00031507470548592
-0.000202385033872749
0.00115516960555904
0.00236512271909627
0.00335576120835705
0.00293014325854658
0.00129347219621732
0.00101766552811565
0.00120793097530713
0.000664366475315557
0.00123132785595106
0.00208371493399414
0.00247638768011423
0.00199608919134498
0.00203651545298848
0.00303281807555785
0.00269370860310368
0.0025721199252617
0.00340629537828513
0.00338484429763633
0.00294751803532714
0.00293800179818678
0.00274302385779807
0.00186422215773538
0.00156982751440465
0.00258092318613923
0.00302453214143644
0.00348259932805005
0.00270662116470817
0.00121614536536776
0.00144103219480531
0.00216838583073667
0.00265454339699637
0.00327077383464243
0.00342977973292106
0.00337056029575138
0.00330183715852545
0.00287843420748606
0.00321085825982182
0.00371532864182391
0.00347900982100071
0.00341184976162974
0.00344334465367328
0.00331720189548591
0.00355020643354098
0.00330936878595565
0.00279781711886618
0.00300137326817555
0.00255426299445328
0.00279126681324705
0.0031957509757706
0.00292883540379244
0.0029309870564162
0.00425406991192993
0.00392525652156264
0.00419005158931046
0.00608952336996847
0.00625796323484235
0.00464311827857286
0.00197982255561546
0.000552443861933321
0.000716129064648683
0.0019024048955485
0.00354309101120581
0.00374144462267596
0.00288545299246632
0.00277036117898379
0.00320014435940355
0.00410422629790296
0.00482282524536681
0.00483924241429298
0.00385943561169464
0.0027229568477908
0.00195208503020877
0.00145480434654502
0.00139229442522283
0.00276636676480878
0.00323391512111601
0.0022472163540259
0.00174373932293158
0.00302390684009869
0.00412341703889552
0.00345288089012914
0.00253074779147825
0.00318005485295272
0.00326925835876328
0.00296023482414541
0.00425397657538833
0.00584593375702241
0.00534888459021204
0.00464533422594728
0.00374836716632425
0.00331956862034256
0.00351171915653567
0.0025411364587724
0.00262217208941494
0.00400180130406172
0.00170800994450182
-6.374538712419E-05
0.00135921605305421
0.00216292101951442
0.0021560955020119
0.00211666957645297
0.0024780276402395
0.00318040243889552
0.00335152841332362
0.00292140647700388
0.00165452855236978
0.00165079748866152
0.00215651577147424
0.00181622910081592
0.00199807429519446
0.00260549593992803
0.00287393917870359
0.00249699462976937
0.00202287339791382
0.00155434667883009
0.00189391483849649
0.00309399820145385
0.00331586848749158
0.00262436085520685
0.00287848249080019
0.0035378725054675
0.00265492344784712
0.00198642537067884
0.00227282338585999
0.00262055277906196
0.00313327076345794
0.00320617369421203
0.00345027268892039
0.00348771407581491
0.00283115102297203
0.00258980500453595
0.00328245975803258
0.00374828072241823
0.00350028197932261
0.00310995370668459
0.00281949890731144
0.00300258331971438
0.00325979606845427
0.00350682987721813
0.0037392465551177
0.00347303432762593
0.00326610575467947
0.00289341576339228
0.00265602468772673
0.00264742041478001
0.00276210796014386
0.00293218726078254
0.00301363961213185
0.00286606104289706
0.00262800791494179
0.00285826640646313
0.00320790199818233
0.00311981400663944
0.00253130255363175
0.00247823768459305
0.00299695433916416
0.00305269312852833
0.00323765935348055
0.00365728909893001
0.00337271364460806
0.0028562042053938
0.00284415249533405
0.00271054136291718
0.00227109910172158
0.00234452749272298
0.00301707948564015
0.00330246555386295
0.00298447610860949
0.00294771457400798
0.00290591076805965
0.00264201821102988
0.00281339009622903
0.00326058161500935
0.00322991435997255
0.0028580406233187
0.00296085854903758
0.00323552326350146
0.00311825819907198
0.00274938873060367
0.00279305385699406
0.00304451139425832
0.00330108138023806
0.00349717024830635
0.00336596060970734
0.00299868562800545
0.00295435625322986
0.00346091948817768
0.00372048991544434
0.00336396937482848
0.00323349207651375
0.00337223555267058
0.0034689090757612
0.00359728243216147
0.0033735275325737
0.00288120611690352
0.00303028939286895
0.00363267268303228
0.00410392825744175
0.0038897482477524
0.00358914953524443
0.00339240652985947
0.00314794375770399
0.00349500826119716
0.00379126146738005
0.0034648632912772
0.0035981255635518
0.0038652774979603
0.00359688216268791
0.00364479051526127
0.00397229688677991
0.00426992539154082
0.00430343533843446
0.004173544154337
0.0044052985830142
0.0049154043502423
0.00522103099669489
0.00508259082350463
0.00541514415358406
0.00580841045016912
0.00504969817994616
0.00443638730258573
0.00421136418333747
0.00419854073246361
0.00440082971853816
0.00455266210899625
0.00491033438066593
0.00552121751249628
0.00565901610563941
0.00515801940191861
0.00462404732802
0.0043142401780555
0.00429846685200167
0.00453768960187635
0.00502266625800207
0.00511025291404073
0.00532388037277759
0.00583550835941505
0.00552711634193807
0.00555297449080371
0.00486603442597635
0.00396151219671692
0.00421468990779937
0.00448167190301931
0.00495728428801085
0.00574165156448933
0.00586935231535972
0.00509363204684808
0.00461971320558457
0.00444645193380573
0.00505898727782881
0.00559599560409415
0.00551813803905039
0.00570385895976928
0.00567415373636712
0.00536732481811864
0.00547814997973827
0.00578557047028903
0.0058484091454304
0.00574897089208773
0.00576952047953875
0.00648929435364558
0.0075712473949158
0.00674396462321644
0.00543285130575826
0.00595214903623326
0.00631719297769313
0.00589172223099658
0.00563875228608865
0.00567417605440463
0.00602920351473189
0.00678931576005962
0.00719848557783362
0.00640174168034801
0.00584166459194899
0.00585631059002387
0.00601881078464035
0.00626215016563343
0.00662646667303949
0.00624569617056654
0.00562681766301248
0.0059403808241535
0.0062145156175151
0.00564842618593574
0.0052631950039666
0.00521845759970625
0.00526238566786034
0.00527678584156289
0.00535361492319047
0.00562954913477515
0.00563128101219595
0.00539110751762523
0.00539643965812565
0.00545213577654695
0.0053551473535811
0.0053598108191037
0.00528621846231519
0.00506648179413892
0.00518232326830222
0.00537960254818642
0.00530680913577456
0.00536671133356311
0.00553275495296335
0.0058784504511303
0.00604481393718786
0.00540543997122374
0.00521548107525224
0.00556379539157805
0.00546626939101322
0.00504291015906885
0.00483636460490253
0.00514182138669683
0.00638518063010052
0.00757519219601998
0.00609556394175738
0.00516630573191367
0.00504617149504881
0.00508846701160042
0.00529013265847154
0.00530902496086105
0.0055753076827978
0.00593714647990272
0.00635628321991405
0.00693110202983007
0.00598068763261221
0.00481152233562056
0.00499164612746719
0.00519326362411668
0.00518521278416626
0.00528637260037051
0.00533555476519068
0.00542273166524612
0.00576878827716014
0.00603427937919912
0.00542838868074516
0.00533155324882104
0.0052168175153842
0.00494049849060336
0.00530275389124775
0.00564389984238984
0.0061324837528613
0.00672165548112171
0.00564772076481367
0.00489357130601193
0.00508002600356434
0.00567630832180566
0.00637955147094584
0.00626342248855491
0.00584392716912065
0.00622728521495548
0.00672353027678347
0.00686513780797626
0.00661004577234193
0.0064825438245248
0.00673730834629784
0.00721884413840041
0.00791724366000934
0.0098091938249219
0.0168491155058896
0.0316970538791998
0.0464545684855621
0.0510412594454515
0.051943048401656
0.052557210192446
0.0527781840866409
0.0529182728983681
0.0507247312091615
0.0467593166927766
0.0413184447614926
0.0333418849993243
0.0288781125272424
0.0263058128946411
0.0246069033983484
0.0227800183272251
0.0208639524541703
0.0198058904479784
0.0191640827497486
0.0186440812494127
0.0188656668692
0.0185496483063339
0.0164855178396988
0.0151700701113156
0.0145282192091939
0.0137054714455235
0.0126639371376155
0.011826588286314
0.0109741898025157
0.0106803899948847
0.0110811343888088
0.0102135572650163
0.00898800992367199
0.0084539778056981
0.00858193421617199
0.0087728010433222
0.00864254474399452
0.00850168641650722
0.00851214814519216
0.00837892040543558
0.00826567210579655
0.00846339326856226
0.00864410397723351
0.00851433914218299
0.00792623897163376
0.00755873980187289
0.00772982385151958
0.00813795840574602
0.00802451993564585
0.00799131898269222
0.00860025118942922
0.00964237261312392
0.0108593667439921
0.0116052930230357
0.0118947302281683
0.011411532952465
0.0109533993011081
0.0112120819956097
0.0115061957205685
0.0116582410016899
0.0117527400891013
0.0112674493585204
0.0105878545256436
0.0101557879131012
0.00997838331215941
0.0100617428404717
0.0102552415470948
0.0102412123927546
0.0100633882684625
0.00990944442195139
0.00971355121933991
0.00952467204975166
0.00952860001623268
0.00940320510426799
0.00892963759739442
0.00852142278348474
0.00830969124904107
0.00821382198436947
0.0081430590708648
0.00812280904874992
0.00818013770056009
0.00831371666678795
0.00838248848875427
0.00858881973255549
0.00878541603268693
0.00878252473795223
0.00873961577369405
0.00874142012618795
0.00897830044730743
0.00921545676814449
0.00933307134508818
0.00942371695844914
0.00953232403706683
0.00962122912580069
0.00970628631796814
0.00968382762181671
0.00948321750668189
0.00942972448777308
0.00944878769581118
0.00940012314207826
0.0092498421420711
0.0091260677158059
0.00909964614918027
0.00909600740716641
0.00904184384102235
0.00905709295514847
0.00903603692991577
0.00910828476599599
0.00919154760299531
0.00919187902834748
0.00915239388645976
0.00922707411054342
0.00923666012161612
0.00923689603425998
0.00926341179352505
0.00927749485672812
0.00929009772892876
0.00938915779805636
0.00951177508354647
0.0097186518945439
0.00996034907154859
0.0100886695092626
0.0102396498412337
0.0104507329703527
0.0106602866062187
0.010905611505464
0.0110758028658095
0.0111319722669616
0.0112106972102679
0.0112984432645371
0.0111965999495179
0.01108507458997
0.0110985012527846
0.0111525798530379
0.0112918524898322
0.0113445939971507
0.0112908466910101
0.0113690559492859
0.0115045025475054
0.0114998061371206
0.011550486037315
0.0117507134251106
0.0119333035033474
0.012052280812778
0.0122854011026552
0.0124690801784098
0.0126294258199316
0.0128037219653711
0.0129521922395172
0.0131053139004434
0.0133326790299365
0.0136125583536714
0.013828699147152
0.0140000852920832
0.014149329491416
0.0144778296690012
0.0147777057906594
0.0149422500193626
0.0151677279485612
0.0155208168661067
0.0158462549857648
0.0159785624972891
0.0161386113639962
0.0163791006453901
0.0166359406987658
0.0168321298596956
0.0171569906825332
0.017586780628029
0.0177465377398584
0.0177630000142358
0.0177093426787762
0.0176476746980277
0.017898452359858
0.0183055589163677
0.0186469492631389
0.0190195378255579
0.0194260822547469
0.0196709061082481
0.0199844005108038
0.0204572005908092
0.0208931868395696
0.0212676505366279
0.0218104730046238
0.0223949827587016
0.0228727246068192
0.02340956937043
0.0237996696142495
0.0242253667197131
0.0248831496422841
0.025455748470035
0.0261027855788521
0.0269366164105221
0.0276338893433218
0.0282452524984199
0.0289077444179706
0.0294789251348646
0.0299201436834436
0.0304682622834416
0.0310991126520977
0.0314114354787452
0.0316887600708253
0.0321150816444039
0.0324455694099366
0.0325681411012249
0.0328444316951479
0.0331140799087489
0.0332872037869996
0.0335804057538991
0.0338802644573505
0.0340761416990289
0.0341961030497843
0.0345201733886369
0.0348340882376548
0.035066606654074
0.0351360442390394
0.0350341621746958
0.035080830378899
0.0352796591804413
0.0355925431351329
0.0358652071712717
0.0360682114556784
0.0365134925141913
0.0368018642783866
0.0369477905159543
0.0373611975517275
0.0377596698576809
0.0380526675349969
0.0383287207073467
0.0386642046603151
0.0391861090083422
0.0397088866798002
0.0400727211505158
0.0403737080090199
0.0407499595701012
0.04129582980778
0.0418196079194256
0.0421770550642114
0.0423943297445432
0.0426771321743246
0.0429138287680185
0.0430131311085739
0.0429246581749117
0.0427008911653591
0.0425065666979286
0.0422849044675639
0.0420904364029099
0.0420380618395851
0.0419655485018431
0.0417727024409835
0.0415287036119547
0.0412329908650363
0.0409146682508374
0.0406729875905254
0.0403487385893555
0.0398418669333074
0.03934679485161
0.0388827764364769
0.0383488187725433
0.0375967488766448
0.0369449893856992
0.0365055978419846
0.0358897821022668
0.0352072745576218
0.0346308882068571
0.0339942620893702
0.0333620695569335
0.0327400453897439
0.0320428508971218
0.031318319127633
0.0305897570279577
0.030030967978115
0.0294815649886995
0.0288085469371037
0.028288144246838
0.0277997263929608
0.0272077846604492
0.0266564856298779
0.0261317186965669
0.0256981962483865
0.0253068555399306
0.0248170135021711
0.0244943162885738
0.0242476111065949
0.0239229549315629
0.023738424662909
0.0234839929482734
0.0231773208584122
0.0229640933887963
0.0226671607128603
0.0224216250430195
0.0223183303669713
0.0222240138516609
0.0221902010729454
0.0219866529158798
0.0216097289363934
0.021136164138959
0.0209420862803547
0.0209165216634211
0.0207538705099703
0.0205948916219752
0.0204867719442389
0.0204620014830837
0.0206319713487697
0.0204582900551098
0.0200005766964745
0.0195130268127754
0.0192193165603355
0.0189903804695984
0.0185673400330865
0.0179757623170962
0.0174706105822397
0.0170217339560188
0.0166751643203579
0.0165180551591261
0.0161405761766743
0.0156571364976241
0.015480020318368
0.015209575252525
0.0151527487446473
0.0153078282444162
0.0151256197802534
0.0147600705710141
0.0145206449985245
0.0143191026044125
0.0142068477142303
0.0138650945929828
0.0135017701227889
0.0133222575050481
0.0130988861116838
0.0126381695865135
0.0124536203443269
0.0123232976931974
0.0119041096536996
0.0116645849256597
0.0116337887097767
0.0113899964643764
0.0113758104183537
0.0115481834828711
0.0109621494894873
0.0102934473175288
0.0103371158184444
0.0107161439413529
0.0108117120298263
0.0109287166912131
0.0114082096634916
0.011856005890208
0.0118259305869823
0.0115235171858486
0.0117293245208417
0.0118023692404467
0.0116084215768735
0.0117270386399258
0.0117323356158912
0.0120207435879069
0.0123474697776352
0.0124477946550299
0.012303393180398
0.0123074170510258
0.0127730534639026
0.0135798411258325
0.014716207972108
0.0157744304770229
0.0161390238425192
0.0162977351724845
0.0166211769110557
0.0175365598952403
0.0178178126883151
0.017081633017383
0.0167424177698661
0.0167885000004926
0.0166162575405356
0.0168491923320731
0.0174298674686631
0.0172769648834833
0.0169287466489924
0.0168642227137766
0.0164837523359271
0.0162506792107738
0.0162899699451863
0.0168790810034757
0.0170370416992771
0.0160082880208215
0.0155693767860549
0.015809600438689
0.0158327470986386
0.0160299167559299
0.0158353828122806
0.0154546268023717
0.0162161222973084
0.0165168750476617
0.0156487435001517
0.0150538793196071
0.0153911788775938
0.0157676275156763
0.0163457375690133
0.0173026078747749
0.0168390772072964
0.0164736561466649
0.0193561737232013
0.0271420295705463
0.0348811605217439
0.0356307261955273
0.0337535067801405
0.0353451515841872
0.0400227823953619
0.0491909475162443
0.0612231996893148
0.0687351011481145
0.0656095291098289
0.0534003098006291
0.0403588306472251
0.0318299599189867
0.0270257507594619
0.0235589475124011
0.0216865476581177
0.0216527887589656
0.0217818305390357
0.0206697324528133
0.0194465444473355
0.0193740757394025
0.0195701976841704
0.0187009685684356
0.0182307025811252
0.0185279666954761
0.0181374550065888
0.0177132618609431
0.0182529879457292
0.0172597757172909
0.0150832458882741
0.0140277675888798
0.015045756053586
0.0149625017523705
0.0124280915419811
0.0121612640410043
0.0134791281052754
0.0144131676723028
0.0153499366686666
0.0161588285201534
0.0176886045075367
0.0173484759257423
0.0153029715179637
0.0161381574003924
0.0189692536362948
0.017574142534242
