1798
3999.43349933624
650.420452594757
1
2
4
0.00699001564463067
0.00719115380109019
0.00754592526953384
0.00708787282959403
0.00669679496572861
0.00669784044182087
0.00648070628828602
0.00635427676055334
0.00651451765142998
0.00665885224819428
0.00649753651059112
0.00640106437696209
0.00676766875323983
0.00695940200029429
0.0069192996616258
0.00640683666919247
0.00609335116566777
0.00607342629683813
0.00633888202558735
0.00683894838949928
0.00701940271150303
0.00684866194313057
0.00671298752708746
0.00669746320288808
0.00672827557769184
0.00656012834117476
0.00701557696915342
0.00747463983721988
0.00701109588119173
0.0063978693157368
0.00628377165884234
0.00653171470576208
0.00666066104984638
0.00690258092888812
0.00699757298133771
0.00661770972510516
0.00665677946828231
0.0067498566740336
0.00680639193780085
0.00641226368639191
0.00583493357425531
0.00583859341627383
0.00598031543535958
0.0064077610045484
0.00613718578602894
0.00609839471890621
0.00663629039482883
0.00707725188537441
0.00693292612250315
0.00668361353251937
0.00643534128608125
0.00629851307234633
0.0061519146096668
0.00629891010705752
0.00645028871903967
0.00626602075823256
0.00637791742103073
0.00680655301940955
0.00662820486478819
0.00620040048670814
0.00614923628541665
0.00622015357067539
0.00625473533676127
0.00662685417275319
0.00689590442554542
0.00650518504321486
0.00653439137728634
0.00650887475179874
0.00617969043085359
0.00627792932129261
0.00658565760996427
0.00664829921630239
0.0059959012041608
0.00621272519340266
0.0065852235582505
0.00650810515169372
0.00621042165154299
0.00591374340426585
0.00577076992599186
0.00561880665754801
0.00637915992867012
0.00668540466726503
0.00641969323900072
0.00679048993799298
0.00733379681610581
0.00732683384333438
0.00654697009940136
0.00595635458223082
0.00564835472356804
0.00593425635654688
0.00608563470083273
0.00643229456377458
0.00642299470054819
0.0060058317772903
0.00587423278143138
0.00601700495640894
0.00616662064771265
0.00609637262089331
0.00581928493647445
0.00624421208448001
0.00641821300073041
0.00644697820224294
0.00699541892156347
0.00692661148756683
0.00655212270814979
0.00694296960031582
0.00682137787551464
0.00639693195054678
0.00596971587336757
0.00600664450047756
0.00642157478984895
0.00642026895689937
0.00616282626011859
0.00626408715458272
0.00623512890886588
0.00651819309891134
0.00702887109156891
0.00688011560780397
0.00608217230347436
0.00587127403432326
0.00638791070336295
0.00622954855155834
0.00588849404238067
0.00612526528046978
0.00645940624289909
0.00636890458177676
0.00644573900450565
0.00653868895139809
0.00645918306211259
0.00667540458636009
0.00668203063268851
0.00669100410597144
0.00608853062138866
0.00610157400482733
0.00606327005735638
0.0051606178454956
0.00488800472210326
0.00561599721888173
0.00609577457703519
0.00564606409284923
0.00609066714482804
0.00597262863318614
0.00577201216513809
0.00616975511994333
0.00667703748303345
0.00628590458410105
0.00575725594952582
0.00624491574264292
0.0062262403745198
0.00572875783184033
0.00605142053482057
0.00617189411893921
0.00597702066096915
0.00578485964543969
0.00549132795653783
0.00638805965158625
0.00663869918044922
0.0064749035532635
0.00682532657402876
0.00761430060758975
0.00722322228634657
0.00741999937783385
0.00818262653063257
0.00832385362025874
0.00829482226249082
0.00755401905798196
0.00772944388016682
0.00788482450969853
0.00749308052646495
0.00681338065642855
0.00670766751475255
0.00756327635493517
0.00762928765450935
0.00735575291754514
0.00758278588476771
0.0079330551831619
0.00721378561829844
0.0072439395750936
0.00844324062430845
0.00883455531270146
0.00834045527676199
0.00839716714133751
0.00825400073282865
0.00875238586362088
0.00891649022946814
0.00921570629935217
0.00947672997183653
0.00896719542041571
0.00952006940901865
0.0104403633543844
0.0104441528520549
0.0104086742450528
0.0108264110452278
0.0111822001536111
0.0115346771521307
0.0121108001173225
0.0120727290526767
0.0117218144256593
0.0114870427586135
0.0122483804555101
0.0132574626181063
0.0133824681420945
0.0131203049013479
0.013412547976577
0.0134577529519437
0.0145808154406595
0.0158443768890599
0.0151557679947778
0.0140956266502934
0.0144562130684981
0.015433569464553
0.0155425596453949
0.0149392208391137
0.0142266514880218
0.0141335600921734
0.0146317782239885
0.014882143464129
0.0150163788880698
0.0148902859613275
0.0150757502769807
0.015345450489647
0.0154868917793026
0.0155999009672744
0.0156836166642477
0.0155782429699913
0.0145347505837942
0.014970851344007
0.0157306897186337
0.0156730925218556
0.0155116772791941
0.0163814206362617
0.0169658918406678
0.0161411322853616
0.0162485667560879
0.0169494055888355
0.0174313503505467
0.017549013367903
0.0164998398064251
0.0162768706524909
0.0168933348884464
0.0169018136186007
0.0168456491657432
0.016251091425684
0.0163500306358495
0.0173983133826259
0.0184856060964903
0.0186385142851218
0.0179005317121096
0.0170350576151433
0.0175764264313744
0.0179731352937418
0.0176418394316345
0.0175125055574122
0.016990802696562
0.0176225156133844
0.0184497843406119
0.0191740266756778
0.0196090232751681
0.0187924007970855
0.0183800040316394
0.0195360986798559
0.0200102135408736
0.0183251100501511
0.0187984390067376
0.0203979626815053
0.0197973190726725
0.0196973257253316
0.0198018909767437
0.0200615495369025
0.0199725838008961
0.0201517654054847
0.0209724148953474
0.0215754936148338
0.0214118072128213
0.0214133369136718
0.0217493223563612
0.0225819397238929
0.0232087140816228
0.0226044128224267
0.0222571980263466
0.0219127609396291
0.0213477533373072
0.0214310425028835
0.022413180103669
0.0223813715341708
0.0216050337919185
0.0205219318665626
0.0210922886293507
0.0223508537091892
0.0225614129597007
0.0230956186494049
0.0235740911493683
0.023096102805635
0.0222073324560372
0.022546439223704
0.023228861224155
0.0230736220166045
0.0229789918285616
0.023612228387863
0.0234842445297482
0.0228866995118574
0.0225811988850857
0.0218949004705234
0.0220264062205916
0.0233284318365469
0.023779229260014
0.0228507205804252
0.0228395330230387
0.0234118539561822
0.0234821963778116
0.0229147953564817
0.023243567591189
0.0241094197715669
0.0238049464167518
0.023319635542606
0.0230031527214841
0.0228487773143667
0.0237081069062403
0.0238236152053417
0.0237203920716136
0.0238830296647972
0.0232777687164497
0.0235158913284065
0.0238245658481591
0.0240579058233944
0.0237046168234724
0.0238800965043962
0.0247205342818855
0.0248335109241288
0.0244244164495885
0.0244498869169852
0.0243829683485804
0.0243344763671406
0.0244686091049601
0.0244186911023184
0.0246070454565597
0.0245449661787772
0.0250427765479324
0.0254876653143138
0.0250961270756952
0.0248782266403077
0.0248628245510433
0.0245986628835318
0.0246146392088656
0.0241397402380616
0.023541247943823
0.0238506337546902
0.0248019145553069
0.0254109842617676
0.0251361823294746
0.02501355772364
0.0254712520188798
0.0260450406935835
0.0261784273637692
0.0252689166373706
0.0248914024251284
0.0253172858286617
0.025696831828303
0.0257243110829855
0.0252255650729886
0.0247467415436569
0.0249669243959741
0.0256514412377524
0.0258952901065265
0.0257316411344773
0.0255928885047221
0.0256292298035387
0.0256760799210031
0.0258857219500164
0.0263145702447475
0.0256307167784984
0.0249538917471378
0.0253198705408826
0.0256414621481547
0.0258319985150972
0.025614812560894
0.0251749092198883
0.0251409490450522
0.025476388931931
0.0259611037899483
0.0257625461470556
0.0253948133780173
0.0259800590382011
0.0258426242202302
0.0250969402059837
0.0253150329991844
0.0257017559684487
0.0257853798553174
0.025963547789319
0.0256903550347231
0.0255900206794643
0.0258497065070657
0.0256172934546539
0.0257189100586872
0.0260979336263307
0.0256058220742351
0.0250870124143182
0.0252805392032221
0.0256682072658515
0.0257041257760404
0.0258856301162518
0.0255144202325957
0.0247505673768748
0.0245493211184415
0.0245629488457406
0.0247730762114084
0.0250936841337047
0.0255501191155194
0.0255980035215219
0.0252704980590068
0.0254499598747947
0.0250227995067784
0.0240588058008276
0.0241805022583843
0.0243996579304252
0.0240293202892343
0.0241342612665141
0.0244734736647197
0.0245043976387643
0.0246081911665793
0.024332737986426
0.0238876836956951
0.0240917500892709
0.0238071847880713
0.0232742489084561
0.0237158765967349
0.0238262546156068
0.0233239463705575
0.0235445173037906
0.0237875361351186
0.0234879084270861
0.0234406727698268
0.0234444895336585
0.0228965769505718
0.0223448440509092
0.0224225952809462
0.0229265528985685
0.0229868759046712
0.0225252490052966
0.0224495131522312
0.0225699998924024
0.0224260318631641
0.0225050393707275
0.0228032334998438
0.022566219152006
0.0221030246481981
0.0219404149101851
0.021883853232045
0.0221620881620568
0.0219695751115143
0.0215800162365957
0.0218972514235266
0.0218517271164471
0.0211813868641067
0.0210138532431508
0.0211121289264794
0.0211548355227818
0.0214428792865441
0.0215300850981742
0.0213038755350876
0.0211484783150633
0.0212656663584762
0.02126820550481
0.0210705131525474
0.0209857025734286
0.0206874177308053
0.0206821193768399
0.0207479744975632
0.0205344293075243
0.0202103478302528
0.0198601948877188
0.0200603329616198
0.0200897274509427
0.0198604769516806
0.0200246389589961
0.0197319583044682
0.0194105861961553
0.0198114019802045
0.0202253535313315
0.0199858112528908
0.0195411128105591
0.0193529211581764
0.0191472276403033
0.0190358569526126
0.0191331429426905
0.0191141200565265
0.0191913742953286
0.0193102313616305
0.0192765312540255
0.0193786148777996
0.019405268293588
0.0189933820326265
0.0187443292503277
0.0188649598912618
0.0187762697471419
0.0185248849060299
0.0184489414677237
0.0183398548788465
0.0181700559168352
0.0181571709379745
0.0181733118417537
0.0179532504013249
0.0178534217493959
0.0178129148008229
0.0177009987681568
0.0178346466709773
0.0177042634600958
0.0171206616539711
0.0166907865451753
0.0168275547600589
0.0172759463005182
0.0172497608549684
0.0169794307857369
0.016928945114138
0.0166473021657579
0.0162544388713905
0.0164264300967894
0.0169043046146008
0.0167418857520848
0.0160047490217591
0.0156143480043368
0.0158700460770969
0.016200690979955
0.0163241042830494
0.0161388779106915
0.015735603419632
0.0157188973524182
0.0160838406371599
0.0162451859235677
0.0159822291174426
0.0158333522799783
0.0158454802267022
0.0154662289545892
0.0151145762390698
0.0150855823055932
0.0152036504063675
0.0153766523382655
0.0152283445214805
0.0151982574544387
0.015366108708692
0.0153562303063477
0.0150449199322276
0.0153154549956155
0.0157063526793825
0.0152936615409743
0.0149856586789352
0.0151597312721999
0.0152083801515693
0.0152325844009539
0.0154066763725596
0.0153333257073149
0.015315736402032
0.0152669066173431
0.0150734970239217
0.0153518679445074
0.0153264790425084
0.0150370284995429
0.0151256169013473
0.0151799623474251
0.0153417608061995
0.0156461634713792
0.0156287188520156
0.015437245214118
0.0154317565664538
0.0154222873106323
0.0154596750619145
0.0153654912348673
0.0152515706512093
0.0154445859733725
0.0158171778458737
0.0159760241732743
0.0157645298437538
0.0156965162723462
0.0158215839635315
0.0159991917937253
0.0158607581337681
0.0154773608508549
0.0152865732624454
0.0154078482919715
0.0160918948301669
0.0165199784889229
0.0162219880721848
0.0159295403592512
0.0156628354770704
0.0156539872561587
0.0156858562191119
0.0155264547460334
0.0153350556174348
0.0150134971491433
0.0145390182170586
0.0145364973730655
0.0146025809141407
0.0144773830861719
0.0145065124138219
0.0146402892802139
0.0147078940953594
0.0148394122998483
0.0149360767261632
0.0145498163483077
0.0141444425769802
0.0141817018142952
0.0140850989870282
0.0140487186521397
0.0141525345198012
0.0142040126248571
0.0141608656935563
0.0141487832099505
0.0141664284896936
0.0140424329654555
0.0137588122396915
0.013811499273342
0.013844151101667
0.0136114981465843
0.0136455855270917
0.0137259384835407
0.0140137470859035
0.0142910240704482
0.0141046109452407
0.0140549467223534
0.0140243995923654
0.0138355301247709
0.0138163418521344
0.0138040999731456
0.0134372881376817
0.0133365508101663
0.0134070618572323
0.0134333174616135
0.013373460213314
0.0130772684389024
0.0130147949772436
0.0132755271356151
0.0131189723064333
0.0128235596809902
0.0129096878491892
0.0131369883771067
0.0130161922671451
0.0128454716249784
0.0129649021319659
0.0130793490570662
0.0128911982159635
0.0126338705749555
0.0125711927592124
0.0125163459269102
0.0124931700000719
0.0126271226342563
0.0127681724162683
0.0126782119270577
0.0124300906583677
0.0123601939190472
0.0123803884010155
0.0125614277953767
0.0126822663364432
0.0125798775275083
0.01264814460338
0.0126846583864106
0.0125708468640323
0.0125274500426199
0.0122910649258407
0.0121455203988268
0.0122229304677558
0.012111742134459
0.0121054320512935
0.0124233894945186
0.0123418455938238
0.0120279795503142
0.0118638950157527
0.0120887005273938
0.0121670362201364
0.0121573524524992
0.0123577524520384
0.012543183858483
0.0123500458346413
0.0121638426249617
0.0120744426852689
0.0118558189195899
0.0117367953927586
0.0117685128479079
0.011592799416427
0.0115371399116094
0.0119831372383948
0.0119532180316148
0.01159918208285
0.0114746839852055
0.0114189973647842
0.0116482412812879
0.0117888125976297
0.011688532106437
0.011822085697139
0.0118499418332716
0.0115106839051755
0.0114430458037772
0.0116597325927842
0.011812807292765
0.0117724508710432
0.0116221178945512
0.0116877590948994
0.0118598814272488
0.0116235585167875
0.0113220150510663
0.0113835213465136
0.0114696668759122
0.0114065716559195
0.0116757728362252
0.0118363177492924
0.0114065726948684
0.0110436046375953
0.0111317546617437
0.0112595262727092
0.0113949653099918
0.0113053165489925
0.01142885180917
0.0117922539325734
0.0115595268533622
0.0110597677158573
0.0111614611687434
0.011246381127986
0.0111302148343595
0.0112340847552481
0.0113259592498988
0.0113771002708111
0.011385532409018
0.0114001850253532
0.0112956747977123
0.0110342667165063
0.0111572872087501
0.0113689594046845
0.0113603459370673
0.0110598739792999
0.0108567064458711
0.0111827713863063
0.0114440871921284
0.0113846157975397
0.0112397062926513
0.011171869594318
0.0110533017733025
0.0111095702889665
0.0111397033577421
0.0111236307039661
0.011425288708989
0.0113145554829815
0.0112162694070624
0.0113042682330572
0.0111351059665528
0.0107794425377069
0.0105044678173449
0.0106668192040318
0.0107363457569656
0.0105803288828848
0.0104979956839901
0.0106266356277476
0.0107450968423199
0.0107968864494709
0.0109896556293287
0.0108272789460341
0.0107974914882246
0.0111454710669921
0.0106861718090707
0.0102360387717643
0.0101459826635782
0.0103434228000641
0.0102509122669976
0.00988765495574466
0.00995848246121902
0.0099550701273685
0.0102541969192552
0.0102387670162311
0.0100914749414366
0.0102456656291055
0.00985918986909621
0.00963428833662999
0.0103051713797609
0.0104560057163935
0.0102124658985657
0.0101537777196765
0.0100792308287285
0.00997427779973813
0.00980069951363956
0.00981597245113558
0.0102984271185742
0.010230224587871
0.00971959188751684
0.00958433714510466
0.00960407989857639
0.0098606702748151
0.00973877072812247
0.00949436617555459
0.00921613148565109
0.00953572879994373
0.010056071594786
0.01006841462722
0.00971685473547403
0.00946639773303263
0.00984369837809027
0.0102544801517359
0.0101283730723677
0.0101926691547053
0.00988490920041446
0.00915306381196113
0.0091264562830652
0.00935496923525722
0.00960740811384181
0.00934697102225366
0.0095115384883218
0.0096111452595161
0.00974512377979434
0.00992801320844341
0.00958383252838422
0.00935212260268839
0.00939786911896941
0.00937999517911652
0.00920907479657473
0.00937591472717858
0.00948198405643529
0.00958437385000603
0.00993728780311223
0.0101485817872682
0.0100915888031075
0.00971936768301184
0.00934503092420628
0.00947904172564886
0.00936013382215592
0.00922718607645921
0.00994264523843677
0.00980906452495323
0.0092090648727031
0.00894833357385804
0.00905980086418572
0.00920078541132701
0.00931303842461647
0.00943524619317529
0.00965421287846894
0.00945057402378689
0.00923835994010263
0.00943658789051039
0.00970236696415012
0.00978561544314384
0.00917541277394798
0.00898217665200789
0.00895501376355845
0.00838829003428156
0.00858926826719554
0.00872049435469126
0.00880145172189729
0.00904652715266028
0.00922543127258872
0.00947901096077037
0.00905068158414428
0.00903975541152734
0.00921157180148962
0.00925620974398778
0.00908094007613061
0.00910491790769613
0.00940490939051997
0.00919931359436135
0.00861336783041836
0.00861135232526943
0.00932881390915539
0.00959561872449615
0.00932943031633263
0.00963021602706357
0.00940155744872853
0.00915122440896882
0.00916256474807377
0.00897103761501722
0.00888707773152615
0.00893349194832752
0.00896554512078013
0.00888624179786578
0.00891436231812615
0.0089926571729742
0.00902967172627122
0.00890128713539208
0.00888447190024895
0.00905158517205012
0.00901976985012791
0.00865381214808718
0.0084083974950012
0.00864764418357581
0.0092427746985262
0.0089485230956516
0.00864627669128929
0.00874181212589948
0.00869710893092306
0.00890655878297562
0.00902824499697493
0.00910348971123176
0.00935327385000582
0.0092305234438352
0.00901059307095606
0.00897066146564948
0.0088643842971354
0.00956856041138378
0.00998884151712619
0.00927876599597819
0.00900362258954409
0.00911176966278925
0.00899728957649267
0.00909699773850354
0.00975322354227468
0.0102293876617348
0.0103265411456105
0.010197696176063
0.0101902150580945
0.0100904319869504
0.00986959589239099
0.00960111340485912
0.0095976841965793
0.00966092682695411
0.00980624302198987
0.0100866386925728
0.00952447340887752
0.00870324795831143
0.00893199737041579
0.00908737032995616
0.0092189104335648
0.00947863814291047
0.00965513468168468
0.00965902822775514
0.00961830791005945
0.00989239073966249
0.00954310212918915
0.00903379133569544
0.00884365252399
0.00852499638439789
0.0088703580819738
0.00897417726034731
0.00806186413642882
0.0074906173385173
0.00798943850210896
0.00856315225763009
0.00806438191495547
0.00715695852674363
0.00740181957261075
0.00790570368515487
0.00783257486414737
0.00701564628720654
0.00699690687163726
0.0071590854363691
0.00656272681527146
0.00677882407539761
0.0074343374476255
0.00710954724647197
0.00735259702530528
0.00890080394955517
0.00858970700269305
0.00713080684087231
0.00676766271669394
0.00655065012546171
0.00610896232521953
0.00638294233338001
0.00671987507903095
0.00651652055026076
0.00569912496043172
0.00594335206934633
0.00690660157426331
0.00584875566865214
0.00502300403066065
0.00512975719460775
0.0044796582763822
0.00482460679656489
0.00535489670490937
0.00578955674410911
0.00576462749080269
0.00593595983570473
0.00659442805195938
0.00542227723158818
0.00458817579605942
0.00496218487761316
0.00392994631088946
0.00268868781592894
0.00228023501928321
0.00331343101480118
0.00483618422880799
0.00515209219016482
0.00575388915017146
0.00588855621630136
0.00526680194430142
0.00521667716484376
0.00516797665938625
0.00405887188557574
0.00273981284646062
0.00112437391188132
0.00165966435166259
0.00279017759787978
0.00333529658717158
0.00326298801332772
0.00331214801717403
0.00279624452226187
0.00300272384409844
0.00367108873758009
0.0039422037048243
0.00356041078510045
0.00320737921602745
0.0024924736087609
0.00385630786993047
0.00502980741317192
0.00378819891729128
0.00404671874689063
0.00472788280271869
0.005291643954854
0.00526337577683729
0.00432887274917547
0.00360067687803027
0.00506850647361337
0.00694406706506624
0.00723667141941311
0.00689141249888113
0.00675066480810727
0.00672127890931995
0.00629635358239461
0.00568341108793254
0.00580785492222245
0.00647192254916678
0.00623619555895722
0.0061698177155173
0.00668092544532553
0.00735945916532739
0.00718277855280477
0.005931189348295
0.00548663661231442
0.00615053948497329
0.00700411531174599
0.0068068247641535
0.00658860739149832
0.00665397746096083
0.00637682684825931
0.00636370878910619
0.00609034503549736
0.00684656439327504
0.00765093306082762
0.00697003059830389
0.00595920599245855
0.00610695240819446
0.00658222389943063
0.00627474071398621
0.00586062203150321
0.005837509371496
0.00578355528908467
0.00578775314243504
0.00533951075116802
0.00404299015555348
0.00424161431540099
0.00559577963229141
0.00477671348853657
0.00388431553078495
0.00493154660882078
0.00606933757997851
0.00457840148169756
0.0031628131254147
0.00456840208596441
0.00331124641992598
0.00135854967858591
0.00275738446982979
0.00269047593564685
0.00228490794076183
0.00235458331485142
0.0025813714633202
0.00320229253903093
0.00273313028867415
0.00259544263802033
0.00312713362435638
0.00333030180980799
0.00292073345700275
0.00196568628153814
0.00213145120050851
0.0038559116720406
0.00399383795753003
0.00256768316558469
0.00239041912811316
0.00315687813197983
0.00422063087422793
0.00459534418858316
0.00523096098349911
0.00580423233500336
0.00565614347856169
0.0050048002502311
0.0032412567697123
0.00228324385357042
0.00281132866657485
0.00393318689407565
0.00457042136182212
0.00475650882785349
0.00514257001138754
0.00542846144275871
0.00377796223982794
0.00147031737802409
0.00332047570192377
0.00623137074242511
0.00592582082224016
0.00468428005085524
0.00426012861946257
0.00359774116264329
0.00312591470564297
0.00411243321113974
0.00576644116537157
0.00490667113638112
0.00449760279905736
0.00565764773973185
0.00572102468864832
0.00502234447319759
0.00595346737359251
0.00679154581261697
0.00589136963681433
0.00537973279261309
0.00550245681611845
0.00594832545535444
0.00597669519602914
0.00587273882472374
0.0067725547987662
0.00711037285167649
0.00643099225657907
0.00572618270415308
0.00593235493821692
0.00671866360728076
0.00672031679017818
0.00633435096772071
0.00668543695949945
0.00663795149438517
0.00628193791623872
0.00659662150142614
0.0071336347082416
0.00720639972519671
0.00714669695353393
0.00699861357000457
0.00669506775343632
0.00706764680894814
0.00784312793362343
0.00829022993459678
0.00793188313633747
0.00717267196661548
0.007152031256607
0.00736393028995062
0.00764500254232484
0.00757993881551521
0.00723445105905961
0.00753683371550808
0.00788185565459263
0.00777708921469568
0.0080043592036744
0.00824985441254567
0.00819068199374863
0.00805530964683569
0.00766556203173512
0.00743903982779328
0.00765609451222627
0.00774592209894668
0.00780102525110758
0.00774826106046231
0.00747933177426546
0.00758981136103274
0.0080973023936648
0.00800636045416767
0.00751059466996497
0.00709588479561402
0.00734822070994927
0.00772508731181351
0.00742966504542752
0.00705473164791234
0.00736200740751448
0.00792500864826016
0.007787493984883
0.00749355254457019
0.00760791301772681
0.00749831460356432
0.00732437941617376
0.00741135194451145
0.00772945031746478
0.0080858143652229
0.00819229690666138
0.00799547305234164
0.0076038772987224
0.00746631964985138
0.00760418241700307
0.0076931311874828
0.00771415721653457
0.0077415011791426
0.00783013957387457
0.00803078362317004
0.00806819118597065
0.00809216109189314
0.00829916496705837
0.00830608936030021
0.00816629368207933
0.00806682826398693
0.00826530272174713
0.00857058071528303
0.00837465153237204
0.0079602560931408
0.00772395081094459
0.00782745158284123
0.0079817548718273
0.00836776312197611
0.00856744180388068
0.00827644334657929
0.00783451218525011
0.00811960192606889
0.00837548763716599
0.00848358129189588
0.00848496572910579
0.00836900167928635
0.00855143171432488
0.00854192077984415
0.00828513245262822
0.00855558252155774
0.00885790114954795
0.00900302916986432
0.0091112531351029
0.00925870079199775
0.00947564719562618
0.00975472688742233
0.0100618245431959
0.010172098815728
0.0103835081827386
0.0104178191525297
0.0100814084993484
0.010475911505331
0.011126261517128
0.0110229666967179
0.0108616284856517
0.0110121051276171
0.011301989147548
0.0116109071505508
0.0117547888460306
0.0116304193809312
0.0118775430124883
0.0124375986696841
0.0128023376231172
0.0131118837032012
0.0137616969967133
0.0143228161909335
0.0146355437910778
0.0154572778004337
0.015891834624407
0.0163271030455797
0.0180024377593697
0.0191804998599087
0.0208347288453088
0.0230237808693944
0.0248842766874222
0.0269034945020165
0.029403333030494
0.0311103283510785
0.0328680028089121
0.0368380693229111
0.0409161651789585
0.0440946847221388
0.0464954030686673
0.0486322177896744
0.0513084911217229
0.0535517226431627
0.05526318870188
0.057920423133067
0.0605127741732503
0.0617991072080225
0.0628456580247088
0.0648925437009501
0.0670247668311457
0.0689713112850997
0.0696923583388998
0.0681912158604097
0.070422993337205
0.0733084408332485
0.0729304522226165
0.0723163202497959
0.0731813097641856
0.0735749614091516
0.0736425681784714
0.0733498247903267
0.0713351601082948
0.0693187843766559
0.0699423982704732
0.0699599441809034
0.0690284425098449
0.0684732038775442
0.0682520916063287
0.0669941588514308
0.0661238087903062
0.0659920167068634
0.0645579301838664
0.0619276753945481
0.0608422777424045
0.0598636948588754
0.0581436992534794
0.0562070855359437
0.0542260200056741
0.0523438127220506
0.0503076946320456
0.048262278218977
0.0461458367264782
0.0441257011168413
0.042405122500786
0.0407663317227261
0.0390932337910009
0.0376534875333379
0.0365324517614084
0.0357123654468391
0.0349405708771458
0.0342420855480474
0.0335680840568813
0.0330749302276382
0.0324498338880393
0.0316212512129154
0.0313485151834498
0.0310920202155298
0.0303898526714386
0.02982385613761
0.0297478266870333
0.0296074025754114
0.0296262282248655
0.0294757774330936
0.0287915504645757
0.0285174266099574
0.0286107433708574
0.0287280731987257
0.0289434177065039
0.0287040767567721
0.0287307587688608
0.0289561955384281
0.02878511832351
0.028559293430093
0.0280779093993267
0.0275093164982093
0.0275525972584186
0.0275166641844855
0.0270316322484269
0.0267790840720904
0.0264710629102614
0.0262897968014471
0.0260760884189282
0.0258736182412752
0.0254959899300841
0.0253480919723998
0.025035682007519
0.024435664149491
0.024401372317121
0.0241260575193718
0.0237945935399035
0.023449909146078
0.0225776277553941
0.022093840967353
0.0220610665718787
0.0218704809515849
0.0215548649748911
0.0213123848042787
0.0209415847248667
0.0206481363702923
0.0206308813158101
0.0204286479815232
0.0199221835166196
0.0193730896434682
0.0192709388190657
0.0193344342383406
0.0192200224723665
0.0192969416497846
0.0194209632134672
0.0196466837778255
0.0199825174202024
0.0198526603563262
0.0200518537298754
0.0203283750493107
0.0203398322688488
0.0201745798707904
0.0202149276811183
0.020257515883717
0.0205703851299154
0.0204832570515947
0.0206329812118334
0.0207370095581577
0.0208223448267655
0.020789675685277
0.0206240392668207
0.0207859008577104
0.0210329111190078
0.0210896960452333
0.0211766698667906
0.0213474150002745
0.0212627626454917
0.0212622593709429
0.0214175248634079
0.0216129783280584
0.0215924365121322
0.021610334949908
0.0216982456421315
0.0217857603568437
0.0220073338193112
0.0219436597892862
0.0220607893833352
0.0222572308026221
0.0223644930461329
0.022522760475136
0.0226206658377754
0.0226534867885825
0.0226728771907837
0.0225108426950206
0.0224310692786826
0.0225446991863789
0.02257964639928
0.0226742370270919
0.0227850481348897
0.0227874001650556
0.0227748878086728
0.0229033133823621
0.0229423658181302
0.022916622493434
0.0231374676108716
0.0233351095096495
0.0233491546682884
0.0233586550033854
0.0235502803239227
0.0237827078117346
0.024011129421758
0.0240834600532197
0.024107513549823
0.0240881179461709
0.024093762758742
0.0240823306830452
0.0239189829140012
0.0238975183590175
0.0238842871170764
0.0238093438510875
0.023681941223533
0.0236447416720144
0.0236917513263554
0.0237928253276609
0.0240892086643181
0.024421570895595
0.0249218424314653
0.0254613441435393
0.0261470865442075
0.0271379837108343
0.0285421616209352
0.0304048763136004
0.0329600527271957
0.0365037804447215
0.0413760176812248
0.0478953482922236
0.0556308623699842
0.0634916778473058
0.0693209042350482
0.0704216248136606
0.0659854632539403
0.0583998965147141
0.0505049043112473
0.0437252712945534
0.0383441683623268
0.0339881018034695
0.0305993007312996
0.0280411922813117
0.0259915582990649
0.024364793918784
0.02325765252234
0.0225155144819021
0.0219484232324266
0.0214261704164841
0.0210817005540984
0.0207867113282601
0.0205332847461712
0.0204480638745468
0.0203440526525842
0.0202492941567019
0.0202693971032891
0.0201517271783336
0.0198746886832791
0.019808420146272
0.0198621456618087
0.0198356386646462
0.0197944016847121
0.0198818489519681
0.0198934627325412
0.0199206758793101
0.0199264184060405
0.0199524932580714
0.019950023388119
0.019907180611012
0.0200264528146945
0.0201223453799923
0.0202445929371739
0.0203275214351962
0.020251033587898
0.0203437887649766
0.0205162406033237
0.020564704746086
0.0205016369816516
0.0205904559804188
0.0207124387944284
0.0207391637019009
0.0207425243354846
0.02082417616034
0.0209123172020368
0.020939809095273
0.0210684319104753
0.0212233174362401
0.021462014019216
0.0218112129241924
0.0221059681400987
0.0225070214800968
0.0228996939637838
0.0231334579986515
0.0235381978936018
0.0241420612807122
0.0247820402158164
0.0253717908058826
0.0259041067707265
0.0264730935748868
0.0270719435863881
0.0276168903433822
0.0283733029305074
0.0290891805543405
0.0298373872895024
0.0307863431865693
0.0316502861719061
0.0324727168081658
0.0334390103988669
0.0345008788467722
0.0356224350346243
0.0367797983369264
0.0379509863868178
0.0393860221488832
0.040990042096649
0.0425956772100654
0.0441229554558409
0.0455685308344735
0.0464766089506993
0.046610112926546
0.0461948622662427
0.0457948241343716
0.0459773058030819
0.0468440837425184
0.0480355564383653
0.0492653496895402
0.0504755628135286
0.0515770107089765
0.0525779289814917
0.0537152308660431
0.0548434151498738
0.0558955856059035
0.0569842155392051
0.0581866182315059
0.0594096199599751
0.0606321022730718
0.0618381521212057
0.0630631270538713
0.0641787385002011
0.0652607054246993
0.0665451390917086
0.0678929327917759
0.0690046959490983
0.0703252474378101
0.0717142774215093
0.0727247890847912
0.0737188662136917
0.0748945056857022
0.0759917387483644
0.0770989197604568
0.0781363638669439
0.0791911959768153
0.0803004304653502
0.081294093573716
0.0822283703424751
0.0833449204319068
0.0843012386832806
0.0850278038286848
0.0859223600845332
0.086710278672442
0.0875232036350726
0.0883924811567887
0.0891226387327331
0.0897219536122143
0.0904412445227581
0.0912831857150873
0.0921812943957426
0.0933203174796703
0.0951034638149262
0.0970761829657458
0.0989927412606683
0.101302456042122
0.103929764092973
0.10656047872554
0.109108285497153
0.111596542964804
0.114313052744275
0.117171587058493
0.119920316460519
0.122704037618029
0.125708876291951
0.128719221726313
0.131553497623255
0.134460742599704
0.137465761734202
0.140378506818584
0.143164387563567
0.145899005093063
0.148193312759037
0.15001094224214
0.15175395786177
0.153440692409543
0.154836272717661
0.155979299490416
0.156991650142528
0.157938180797842
0.158994346022418
0.160149587760447
0.161250229587967
0.162350861214823
0.163476671909214
0.164672814914194
0.165770443370566
0.166705410708243
0.167375897105206
0.167834939937491
0.168081039253287
0.168181986500199
0.168196431998976
0.168276568479643
0.168027871613963
0.16757131577989
0.167222141022265
0.166865911999693
0.16617437823993
0.16548180688513
0.164853148296406
0.163524093665243
0.161758844918864
0.160313588371506
0.158791206622977
0.157072298244422
0.155139483915292
0.153011069006286
0.150779028309872
0.148525736609836
0.146301906804121
0.14417750418404
0.14206209447373
0.139976308224346
0.137916281455363
0.136036377809276
0.134189598471879
0.132244903122767
0.130500876595126
0.129040953065443
0.127703787822924
0.126543923270839
0.125442215212216
0.124538964843466
0.123773071405029
0.122811431245056
0.121585088497317
0.120413229429469
0.119678924928055
0.119051195958586
0.118479545781292
0.117788740633224
0.117206399250898
0.11692284831776
0.116862439691574
0.117041285422971
0.117267587665944
0.117087943699942
0.116378337601485
0.114987933128053
0.113121177047701
0.111089308126829
0.108943066193036
0.106839696801159
0.104305503836858
0.101879607131026
0.100006114059795
0.0984078824398481
0.0968208793513747
0.0953080326653543
0.0940411956218413
0.0927782411924884
0.0916018662414405
0.0905458307505666
0.0895720654698245
0.089123461148533
0.0882937498842645
0.0870421844641652
0.0858824588684394
0.0846403433682027
0.0832498603978399
0.0816921825470271
0.0798749959856702
0.0778918374649153
0.0762859483492529
0.0749643911442225
0.0734052668025974
0.0716845962245947
0.0698423564634208
0.0684039732562219
0.0674806654188536
0.066147163983088
0.0651690860335925
0.0647052992133118
0.0638855292900198
0.0629465789659246
0.0625003683017663
0.062229272926327
0.0616491759644808
0.0612810677731058
0.0612937454195371
0.0610499488511553
0.0603638021562501
0.0598387065088631
0.0593422594568667
0.0586391133624654
0.0586504102347991
0.0588825506164367
0.0586711790784365
0.0587098831476977
0.0596112681084569
0.0611798275748043
0.0635013921884972
0.0667785974600763
0.071412964203447
0.0772282861013196
0.0831729609777195
0.0878356929972356
0.0908750821022588
0.0924382999750733
0.0932421772117992
0.0941577995094486
0.0950663864249253
0.0962377803367717
0.0974640273255654
0.0985117946222915
0.100668263382429
0.103636411789206
0.105864928885206
0.107623758718141
0.108130382725201
0.106585854832397
0.104891169206845
0.104209151547052
0.103832658384079
0.10287526840916
0.101942560754979
0.101569673694815
0.101137263896494
0.0999456086518468
0.0985047148106995
0.0978701438118673
0.0971606493012461
0.0957542591101577
0.0952197436771904
0.0952357309991899
0.0945727959152045
0.0931213111500106
0.0919279526133911
0.0908513174658938
0.0888761051814207
0.0876010665700605
0.0878131459232081
0.0870038283056977
0.0858747191085201
0.085495765048664
0.0852493652726256
0.0853369333530102
0.0844525350267241
0.0828746126855633
0.082113741394674
0.0819779001428207
0.081820252738628
0.0822905559195104
0.0820367925019609
0.0804891729804407
0.079933433876118
0.0801982762022261
0.0796516575501992
0.0797581125898528
0.081793241296616
0.0849726052603379
0.0883439495590151
0.0916862663324593
0.0941781908233699
0.0938293109289584
0.092031489540948
0.0913294109642654
0.0901931972200351
0.0871137768673609
0.0864667255603404
0.0889198991827937
0.0876363327696683
0.0843353726179824
0.0835026163959961
0.0838455163650096
0.084151839420302
0.0839143186288531
0.0819678994925731
0.0794171483823609
0.0806412347274211
0.0841514990483052
0.0842179320612542
0.0826638776647129
0.0841772523356055
0.0881201931160722
0.0891689218834932
0.087895029633584
