1798
3999.43349933624
650.420452594757
1
2
4
0.00833074440376647
0.00818546773340299
0.00840100395151753
0.00875590704475547
0.00906632641365392
0.00928831483429115
0.00880298437524731
0.00799527098391033
0.00777829447430886
0.00820536302676898
0.00906861525540652
0.00896001107253398
0.00873898304173187
0.00863280025685008
0.00810369669772911
0.00822191429138418
0.00866292299945834
0.00824494449207601
0.00852903333444152
0.00921873754859373
0.0084987454621585
0.0083275444733855
0.00841595032424497
0.00782533011463439
0.00789938649106495
0.00852930126635825
0.00849525997808318
0.0082046214620873
0.00876329377305333
0.00892178905502601
0.00828495730071216
0.00795813676847735
0.00805169083023845
0.00820253814349153
0.00833413570389023
0.0083973768488307
0.00819659439221081
0.00814082945881704
0.00860981241797426
0.00837365448834803
0.00764990000445208
0.00766531189278384
0.00841457900468096
0.00858457447887017
0.00831083856420164
0.00817884954955095
0.0084298776530216
0.00877103207775599
0.00852742322955219
0.0080277017927596
0.00844332482955668
0.00913525814166097
0.00906622581668299
0.0084643815436971
0.00800073017331599
0.00806283586698416
0.00853545667050966
0.00844049534756369
0.00799442616614137
0.0084089656102009
0.00867425300569657
0.00797768336057804
0.00784431998011083
0.0080039299923672
0.00801372857215007
0.00829190883709597
0.00832769848773187
0.00821050254742109
0.00828423629726014
0.00785038868430792
0.00798765611208769
0.00838823410396817
0.00821457242483186
0.00790000454608396
0.00782212067911755
0.00773987001520419
0.00840421794442682
0.00939742626263452
0.00854103802140667
0.00752474839460587
0.00752638584891345
0.00758030742796565
0.00785568485214631
0.00778753166623206
0.00832399617667115
0.00854951192431705
0.00764913541636534
0.00745453920930799
0.00773541131211989
0.00767004961545999
0.00772675886430462
0.00832715944518785
0.00824353467465744
0.0082819240001335
0.00913823547541348
0.00911258703256337
0.00812522361938521
0.00797919575806671
0.00776051418576091
0.00752319317719313
0.00811754939012515
0.00869881119632682
0.00830343002381587
0.00774113984684455
0.00815123172571925
0.0086966911248329
0.00807902479172133
0.00792544150425769
0.00844364536947082
0.00839333179425689
0.00839406478586071
0.00830206719044307
0.00836992123951306
0.00808124946299712
0.00788962988900749
0.007881255885122
0.00776511797971207
0.0077703810949351
0.00784238430666062
0.00761076944944336
0.00768845330706036
0.00846353155660898
0.00865812501161716
0.00775161825157863
0.00807228150883175
0.00832995575840511
0.00832936618567789
0.00853433977861321
0.00832646921385352
0.00770996701103749
0.00778157202474551
0.00833772791733693
0.00790564339142838
0.00747430533564435
0.00818620577427787
0.00833165465174458
0.00729700208156174
0.00653489378297606
0.00730072890088559
0.00810332716202428
0.00830404060583095
0.00811644508933763
0.00750661515600716
0.00717973409105106
0.00768441683492234
0.00799014558648345
0.00719798697996818
0.00675571179813458
0.00746442296014077
0.0077762388414598
0.0077779480498962
0.00761527294666252
0.00810174407261778
0.00891394287308975
0.00898999015652477
0.00860101662071507
0.00842389043794686
0.00871943100439664
0.00885788176453953
0.00823289006951432
0.00810018174970075
0.0089959692838261
0.0100914686232004
0.010212858465183
0.00971234468860656
0.00999020538140559
0.0103022774509678
0.00974777250275369
0.00953466234637293
0.0100602377950119
0.0102312470521671
0.0100154805146147
0.010251827042689
0.00967057865864173
0.00908890783850893
0.00874177641823919
0.00898215000142593
0.00994136896552091
0.00995224753129201
0.00964769246648146
0.010382693723129
0.0113640332649261
0.0112859565159542
0.0111434845479295
0.0114592659283801
0.0118995612635877
0.0120927874551298
0.0118372643127284
0.0113611825664525
0.0117700334992278
0.0127460749921779
0.0129549233284193
0.0126729503159676
0.0128452976362021
0.013348789283608
0.0136235046550902
0.0134333964819956
0.0135452243428014
0.0137996945032036
0.0139652079361229
0.0149236878078099
0.0151802678059821
0.0155649849624598
0.0158042899889643
0.0156601724487565
0.0152625669984556
0.0150593056165378
0.0149771779007326
0.0144791810912462
0.0140710279088783
0.0139471653772623
0.0144446797476873
0.0151886450994004
0.0152099016277891
0.0148093058377381
0.0150925583473754
0.0158837310426607
0.0150649122418671
0.0142762130014358
0.0141641221579087
0.0139106476068253
0.0141354483712894
0.0137640933549471
0.01409634955437
0.0136231482247048
0.0132939675024857
0.0138550896045613
0.0140017961008443
0.0140803372707875
0.0151325857011471
0.0146976199844266
0.014117483829173
0.0136500593796839
0.0124863482753638
0.0127287054333788
0.0133428304861266
0.0140257013213069
0.0144580415089789
0.0137824665032871
0.0134913968324654
0.013482309736798
0.0140201611097752
0.0142643885503594
0.0137178397818585
0.0135699613087403
0.0138044861400913
0.014481097615923
0.0140436320925819
0.0123483291325831
0.0133869287181902
0.0146729330811997
0.0137922490223884
0.0135800977793962
0.0137616979577448
0.0137350500855279
0.0134508259227866
0.0138647873405505
0.0140545774479168
0.013955172522455
0.0139802184460561
0.0140565870065448
0.0141772537550992
0.0139714911512544
0.0137277538282845
0.0133987853081667
0.0136724388577411
0.0140311954150151
0.014424353646483
0.0147353382771092
0.0149679895012138
0.0141649661221816
0.0139366145420151
0.0145441717374572
0.0137771390775714
0.0137883777801859
0.0144032480909331
0.013841984166022
0.0134405038789915
0.013387770762778
0.0140398895566685
0.0146501313109779
0.0148516603356684
0.0146948787493683
0.0151836843647998
0.0159365767398133
0.0160761621162166
0.0159949758556236
0.0157738341645573
0.0153752322916739
0.0154377163890566
0.0155880013293258
0.0149094181266597
0.0145156498688961
0.0148682708035525
0.0148076642424038
0.0146946237740136
0.015073540658304
0.0156858877704028
0.0156646941307091
0.0154099730839416
0.0157362485871839
0.0157910070842319
0.0157438323589982
0.0157078313779404
0.0157284152806441
0.0161681757330083
0.0160461416986558
0.0160594798571573
0.0162533761012925
0.016224772119862
0.0164861524696279
0.0162505921573928
0.0162988126812572
0.0167134660598103
0.0165194711712212
0.0159328990171651
0.0163302265994908
0.0168497765082273
0.015943522595306
0.0159329498208282
0.0170143923446006
0.0170845576265157
0.0162505562758374
0.0161712751072014
0.0168378323548717
0.0168638429230922
0.0162372239957462
0.0165257207785814
0.0163604006736477
0.0159933037853912
0.0165637532638993
0.0170621336780599
0.0173007266037259
0.0172614665621751
0.0169154916635769
0.0171632303789571
0.0175644474082083
0.0171840139887474
0.0171543137496751
0.0173621649145281
0.0172935083182216
0.0173896801401595
0.0172361407891268
0.0174541103701938
0.0173807061331777
0.0167746664484308
0.016763415711209
0.0173202449289619
0.0175515279666169
0.0172808178824819
0.0172973089862383
0.0174950488970623
0.0174321380561649
0.0174834930545786
0.0173116355892406
0.0172032320505649
0.0172993984163461
0.016714866317111
0.0165002297570804
0.0165227250619637
0.0167075360992757
0.0176244669411142
0.0179505132219551
0.0179909779636713
0.0179117514921845
0.017937493770761
0.0179671433756265
0.0176347490813367
0.0173482613549028
0.0173480594550538
0.0177827863981185
0.0180500559219919
0.0175890506655482
0.0168402412707495
0.0169315364320491
0.0174444970250656
0.0173735582431949
0.0169130214615694
0.0170291325597188
0.0175516007662347
0.0176928116767259
0.0178308735261992
0.0180142338612232
0.0180943342483993
0.0180081749879578
0.0182933336611332
0.0185645047520399
0.0183449710129152
0.0174479738479759
0.0166227296245807
0.0169913063700951
0.0176012508620394
0.0175802598537871
0.0173981985886492
0.0175134391472161
0.0177571113697541
0.0181567329949287
0.0183725606145571
0.0182718251066882
0.0181316588373441
0.0180857050251887
0.0177741990708765
0.0176655860285104
0.0175980993003032
0.0174507498049355
0.0172807757486224
0.016850680887669
0.0167433945870419
0.0172396790458611
0.0170921393459351
0.0166614144784012
0.016934622217292
0.017544533603982
0.0178964897045091
0.0177249171929719
0.0172791018797752
0.0167233151151208
0.0165299135763577
0.0171356746997253
0.0179070858403335
0.0176819615988692
0.0171550186043022
0.017298477260059
0.0175383759652786
0.0170181453023031
0.0167239252004703
0.0173392976646284
0.0169031750079762
0.0157615637457935
0.0158657079490224
0.0167486472168334
0.0170764314475557
0.0168207343053208
0.0168488523224058
0.0169384888312666
0.0165413283876064
0.016436559156767
0.0162992484572893
0.01617463322561
0.0162820297294386
0.0163797398463798
0.0162021166746655
0.0157450673043884
0.0160300741600489
0.0167594735282006
0.0169176513181837
0.0162803400515575
0.0157347403693492
0.0158400518348176
0.0161201481252428
0.0159897024620588
0.0158900107900511
0.0162783229178332
0.0163420123005021
0.0162787117419443
0.0160655304601014
0.0154085379450527
0.0151752074525525
0.0152845136014246
0.0151966469448321
0.0149156210743134
0.0149481930663344
0.0154934479767124
0.0157021214104492
0.0152958656571266
0.0151912271859267
0.0152705579023541
0.0152285492165753
0.0152951208936753
0.0154046087818161
0.0155692127190589
0.0155648567212143
0.0154439288119539
0.0156765270419968
0.0155712731507441
0.0147843174155516
0.015039699570999
0.0158893646304944
0.0155325729852979
0.0150017444468252
0.0150325519343306
0.0151383832389927
0.0150676391087487
0.0147617651652522
0.0148961861903159
0.0150969782518062
0.0150067383298639
0.0150565180513061
0.0149675503684622
0.0149085212721808
0.0150280875853995
0.0150539764868391
0.0149557052144904
0.0147609353890924
0.0145983008737467
0.0147393211389314
0.0146528029507739
0.0142438014730002
0.0143773943895334
0.0145159107679574
0.0142368940100386
0.0143637466734301
0.0144752849062693
0.0144264895715985
0.0146889997462124
0.0147580368532489
0.014783198700281
0.0148683171281769
0.0147050255728909
0.0141989532370871
0.0135967247502427
0.0136240685159091
0.014175857114463
0.0143207234074306
0.0139351780021612
0.0137419237055685
0.0136843943862187
0.0137908370341561
0.0141800711704828
0.0141457836518547
0.0135848689949877
0.013098801766318
0.013374455445006
0.0139258640922216
0.0139470661051484
0.0139509434764286
0.0141085256073419
0.0143389714571602
0.0142565057865954
0.0136885745902968
0.0133800681859851
0.0135395578817984
0.0134647945530679
0.0132801868002042
0.0134293583617774
0.0134481832900594
0.0134627797870621
0.0137371387266391
0.0139885525402658
0.0136880919127955
0.0134122781170754
0.0136641566585158
0.0137774840607058
0.0133524361471101
0.0131817199051027
0.013479329058288
0.0136581799459391
0.0136591360878659
0.0135787269672402
0.0134857064646432
0.0131679089038286
0.0130569221563685
0.0132723418386425
0.0134470393321245
0.0136994071634078
0.0137192178383848
0.0135578174704785
0.0133958142041419
0.0133304993683648
0.0135128625803804
0.0136888952697627
0.0137031188484874
0.0136597907806836
0.0134277254624403
0.0132605586779039
0.013675279759106
0.0137071282169551
0.0133143448410071
0.0132990657412713
0.0137138494528641
0.0139642614918182
0.0137119095863727
0.0135711491297338
0.0135699485459288
0.0133289436992831
0.0130867991914886
0.0133870771797568
0.0136004710319371
0.0136774255500468
0.013898189894256
0.0138046304722972
0.0136450020766783
0.0134850941605248
0.0133508520860686
0.0135214225693856
0.0137177721548709
0.0137666987298443
0.0135927373199808
0.0133075343499094
0.0131632582919393
0.0130793833334444
0.013006212834933
0.013118272879454
0.0132104160357901
0.0131329764361717
0.0129962449142585
0.0128731433354866
0.0127868907350218
0.0127868467259375
0.0126921060779249
0.0128941289645818
0.0132208002003155
0.0133152674340652
0.0133239855300221
0.0131874306709505
0.0129839085298052
0.0128232935013476
0.0126453295634759
0.012384651153811
0.0126816491958061
0.0131794760469282
0.0132117277780669
0.0129463094576655
0.0127180112280452
0.0129171396977125
0.0131590815594565
0.0129877341537825
0.0126675335487502
0.0126206262605532
0.0128076153910304
0.0129622122780329
0.0127026249438551
0.0122891707513662
0.0125397787653705
0.0126252722774865
0.0123454617524382
0.012403132536339
0.0125500430042473
0.0125620759136751
0.0122027835643764
0.0119232356040812
0.0122853476129654
0.0125846444394311
0.01233413624122
0.0120635741017681
0.011939950120736
0.0120233904709443
0.0124526874879745
0.0125376989827716
0.012207549365015
0.0120855789455278
0.01217635726028
0.0120713475217856
0.0120727818743759
0.0119731936039557
0.0118082025341329
0.0120860087608501
0.0123989485774072
0.0122068074429177
0.0117927976888524
0.0118328957671288
0.0120563182540779
0.012021635352505
0.0117113547279413
0.0118009022664899
0.0123123033107877
0.0122529534800481
0.0120796363493318
0.0119622411178391
0.0118075033768548
0.0119446286191209
0.011874121744497
0.0115810032293808
0.0115758450638195
0.011758869809199
0.0120433457456904
0.0120905999444093
0.011774488700767
0.0116619216990265
0.0116624331092647
0.0117185097454984
0.0115839629636074
0.0114770619741975
0.0116275176534847
0.0117668742073682
0.011809996317007
0.0117942200139655
0.0117871541977846
0.012027686218515
0.0121590341614482
0.0118613288510844
0.0113483661014628
0.0113570249611332
0.0116885199340453
0.0114543436436607
0.0113623777472885
0.0114045528289894
0.0113247957052815
0.0116236907520685
0.0117066435128769
0.011307674165272
0.011488788706581
0.0118378801971113
0.0117940689082628
0.0115621931369289
0.011144431253849
0.0110165995578122
0.0113802011468492
0.01154226146391
0.0115214786250447
0.0116411759703731
0.0116173702378133
0.0114587523754542
0.011333776648545
0.0113289732859542
0.0115389908246297
0.0116711810374749
0.0116937918624063
0.0116041531494975
0.0114438714060858
0.0111292740802113
0.010997350750148
0.0110263681252271
0.011197037120647
0.011406503869705
0.0112669508557372
0.0113518159010648
0.0115384566250474
0.0115356177562725
0.011180146144771
0.0109645398855861
0.0111477178971606
0.0113941973623248
0.0114973319416294
0.0117128098465267
0.0117842345911388
0.0117990929430008
0.0117394643801282
0.0117253386437216
0.0116258535317418
0.0115555798559313
0.0117131222264931
0.0118054436286998
0.0115986814332286
0.0114103461040681
0.0113752215320182
0.0112361431709254
0.0111294707735047
0.0113173935927757
0.0114822092455682
0.0111002689732301
0.0107254516179552
0.0111881063132488
0.0112455046870108
0.0109137058072094
0.0109657319430741
0.0108321779625343
0.0106350401960772
0.0110479569178218
0.0114396488884605
0.0111811297647973
0.0109988456592144
0.0108341510121396
0.0108446482619652
0.0111076706712215
0.0110389987864644
0.0105667306090073
0.0106641329506265
0.0108614396909439
0.0111666971793692
0.0110749871449887
0.0105510735820707
0.0101741018714096
0.0103261931493428
0.0106211947582321
0.010370617576946
0.0100489538975828
0.0103135514654958
0.0107853178936967
0.01065436646698
0.0101154730857781
0.0103125853364656
0.0106749819747273
0.0103833204225051
0.0105353330646959
0.0106706072561906
0.0102686851962039
0.010145761949876
0.0105454324776988
0.0102961283820857
0.0100217420852367
0.010091828141726
0.0101132981102387
0.0103626294467246
0.0101431097731147
0.0100086113280372
0.0103431034050038
0.0102064464983424
0.00991761417606588
0.0100397109592215
0.00998157248003688
0.0102090222828568
0.0104113491100811
0.0100190774994762
0.00951382830983786
0.0097124632560349
0.00960385257149659
0.00911877662202029
0.00930361577714499
0.0098778688197162
0.0100371446869243
0.0101126784882553
0.0103422121104341
0.00971608844302639
0.00946359936210502
0.00992270612865942
0.0103925038353421
0.0102105769359575
0.0100108688691362
0.009683899433929
0.00972751372062103
0.00963370786602036
0.00958630610434857
0.00931039015513008
0.00912811379044964
0.0096213765638976
0.0102400052079226
0.0108068306818226
0.0107432470391929
0.010021867981596
0.00988850039263879
0.0102977515910062
0.0101545449471769
0.00976602019490929
0.00941254109024633
0.00957857712434644
0.0101454469793212
0.00997740597073353
0.00997876009032255
0.0102255204363926
0.00968006398302809
0.00996879259891987
0.0100807773160522
0.0094797160742894
0.00986818068028426
0.00995210084607955
0.00970035555965365
0.00974654118835686
0.00928924267538469
0.00900129680763457
0.0094222663416293
0.00979871298630672
0.00941074143568
0.00946543371207161
0.00965172487599426
0.0089939622819576
0.00880593716497031
0.00931382859119788
0.00970616103820882
0.00918159365548098
0.00906812909393636
0.00998168390743031
0.0100736893838411
0.00938296944269765
0.00961158076221306
0.0100746556693172
0.00965979957674733
0.00951959523345417
0.00910565317500284
0.00874535790994843
0.00895987630884631
0.00923547991396573
0.00985311734953669
0.0103942760194084
0.00991489377718391
0.00952953413091477
0.00963409293357995
0.00962502377991675
0.00969479371915718
0.00966924291594473
0.00978714212345572
0.00953665927435631
0.00890117369503853
0.00897982686865986
0.00902515719207588
0.00875037064525858
0.00890401682182823
0.00895609253209913
0.00895926013142668
0.00875041125666663
0.00874356055199461
0.00937536165976351
0.00967370783007478
0.00950727308338225
0.00909165019921923
0.00911764447647484
0.00960177487655209
0.00988769024079762
0.00973822789481018
0.00965813979178796
0.00961354783520101
0.0094440433850234
0.00925550441479365
0.00929911313788842
0.00911446668358226
0.00929308241234789
0.00963415381164498
0.00991614166805671
0.0100720753059389
0.0102683932272758
0.0104181484564478
0.0104852744471687
0.0102827282684227
0.0101387288821477
0.0101370615655816
0.0100519806562891
0.0102817083374475
0.010461516607379
0.0100316978023506
0.00955063698902406
0.00976592741569963
0.00959290235738643
0.00929082391565205
0.00961639606607767
0.00986955056050754
0.0101250762696864
0.0100116251985842
0.00978062762881118
0.0095049981287807
0.00931562713300744
0.00971685556232356
0.0093755405448377
0.00895257035195642
0.00895681214848901
0.00879298299221268
0.00861913894397042
0.0088132882905475
0.00794748912569267
0.00696435568294567
0.00780368276781969
0.00810526795647113
0.00818060394402919
0.00820358241929081
0.00736614263339606
0.0065691180466861
0.00670789230340346
0.00622795960193483
0.006741493096292
0.00695984556117214
0.0058976708770345
0.00684086809359572
0.00741210063851055
0.0070861198437191
0.00697941494293551
0.00718153353032502
0.00748461411579606
0.00754584352617462
0.00690702778053527
0.00686205688897364
0.0072517046161157
0.00644008466377123
0.00528378617507887
0.00582342040611074
0.00723030235812514
0.00712608870195893
0.00689079254549549
0.00695629508743887
0.00570561520088134
0.0062022859310196
0.00675852672345404
0.00664624026825587
0.00642254936064555
0.00393463274918503
0.00386917626197904
0.0054302687445238
0.00543062962117813
0.00549354922726936
0.00589857981414222
0.00621391190297642
0.00552593014519734
0.00514517972823723
0.00460748700884353
0.00247534438459893
0.00248296380575392
0.00604175625532962
0.00681432477832819
0.00511630973482088
0.00401495944756763
0.00302929537741096
0.00296568084551024
0.00304068136671236
0.00329911782057091
0.00404454451536168
0.00443511114139417
0.00336340953876222
0.003244931220845
0.00270649167755901
0.00145905780248185
-0.000201122497761609
-0.000671360462867755
0.00179722099289141
0.00452625822053343
0.0034298123549648
0.00214213554628025
0.00250082851185547
0.00306844178765565
0.00352807699720876
0.00399908107646572
0.0043603984123543
0.00459150775521142
0.00440888429998736
0.00422422839560242
0.0043060847354705
0.00515502268233441
0.00560441607342926
0.00513523852385898
0.00535840636805203
0.00595717934038716
0.0057056826920026
0.00578699032129918
0.00708902724258155
0.0084092432928281
0.00797691290420919
0.00638328044983938
0.00609000904886597
0.00671454155452923
0.00693848516212785
0.0068375614751643
0.0060529545095633
0.00565207686882946
0.00621949135165496
0.00657843022175253
0.00608783102629478
0.00515804878379254
0.00567035266639097
0.0065618769563581
0.00645415706390717
0.00666013649323643
0.00644830926089227
0.00562060740561856
0.00602028254576795
0.00680701185237652
0.00689705205079486
0.00659748466643045
0.00601296366630277
0.00531220770724146
0.0061326649380307
0.00639457760761151
0.00530292497620163
0.00547821320184496
0.00571604129249596
0.00561213319042203
0.00565016003985584
0.00498558020604217
0.00424247459978827
0.00532445339843331
0.00618876884186715
0.00661099818180857
0.00561007272307511
0.00312731411843382
0.00167578716839641
0.00117786016715375
0.00161615360165785
0.0023728285575925
0.00383592704624758
0.00440192300479033
0.00256304160715179
0.00165520681855756
0.00375744898248941
0.0045609665415119
0.00297281626432158
0.00256509192765903
0.0025076658443004
0.00253230749455008
0.00352126737808031
0.00396633349054548
0.00224987296306603
0.00103696614599748
0.00113537515149442
0.00266069329394245
0.00306285791725674
0.00197670827878565
0.00273341385434197
0.00493145793602098
0.00481287871004936
0.00439502092294888
0.00656053765063211
0.00606297008423211
0.00438393126631152
0.00481007534078545
0.00486031716240624
0.00257583813738811
0.00172120240194141
0.00254464604344035
0.00143699599917845
0.000567525556207831
0.00183019375676301
0.00256370109639372
0.00215408724604902
0.00235335556762338
0.00313435523330376
0.00482667808611867
0.00615292636147194
0.00497008747028507
0.00457280925756909
0.00569076580758879
0.00554646440856964
0.00486118849998722
0.00505614722080152
0.00533987323525161
0.00578888528162328
0.00632790063856373
0.00563239312894109
0.00530730793890538
0.00551440234711797
0.0056325148698517
0.00650708170019822
0.00691716121682915
0.00669097486834534
0.00673645965850475
0.00676543502142662
0.0066791652057807
0.00646611483099248
0.00634467135812627
0.00644790219192404
0.006942121916411
0.00732441935264828
0.00736249333304986
0.00727446840824462
0.00733932017821812
0.00783943594937874
0.00753740625902874
0.00687513908831595
0.00691325170778757
0.00723968424942346
0.00750640595164234
0.00731830588105318
0.00701566677423286
0.00737581742652703
0.00820288388698314
0.00860371789853138
0.00880286686954792
0.00872042469896827
0.00808452434673361
0.00783678949049944
0.00801691489944516
0.00811258883893917
0.00810204963955361
0.00805436015294054
0.00769495314372874
0.00772434976471868
0.00828968156113834
0.00823399357105032
0.00814597433961396
0.00832843532607944
0.00838684005979731
0.00835351956934762
0.00818948150086829
0.00798315461450431
0.00761769805984608
0.00766996965774686
0.00801967684246715
0.00799317662118837
0.0079000747775889
0.00793500214892776
0.0079684403276435
0.00792910183363133
0.0080775885564608
0.0083112867075778
0.00831045216720444
0.00823767471361912
0.00817167245921054
0.0081708667393266
0.00828067046763193
0.00821454410311676
0.0078985513198039
0.00771408696522601
0.00783842069505049
0.00811136500566609
0.00834451668077389
0.00829703774304655
0.00808507461542184
0.00812466461089673
0.00831087193494759
0.00825028330501598
0.00815566479303374
0.00818046091840658
0.0082887168450177
0.00859576610356593
0.00860229663330342
0.00852494907758577
0.0087256831703443
0.00877642636950341
0.00872901860094765
0.00862962348352849
0.00842363337101845
0.00835868553094601
0.0085355857801834
0.00873982271414915
0.00870965273298342
0.00857826078049354
0.00865139115920812
0.0085959876511448
0.00842319484997729
0.00848670435077199
0.00825834706822967
0.00824092507447546
0.00855418867968561
0.00837799424234
0.00829529204624111
0.00847806771170763
0.00841431011047467
0.0084106733689949
0.00846445438338918
0.00848005826678284
0.0085705796211669
0.0084538633610747
0.00839224425766593
0.00842982136813923
0.00840927728954935
0.00839677118343789
0.00859693545135353
0.00896308371916854
0.00903252024826931
0.00921506254952334
0.00918377772866968
0.0087322029198043
0.0087594922563983
0.00880785683192415
0.00899554661795906
0.00920986112550522
0.00920358054181111
0.00918442923196829
0.00931016852695121
0.00952078178657619
0.00957546618244219
0.00956495367799186
0.00988202210616154
0.0102451963582227
0.0105412397135263
0.0106728474675769
0.0105484572198016
0.0110360145972246
0.0116601061063162
0.0114908595594098
0.0118713027727821
0.0124673265803125
0.0128583050505216
0.0136094177004589
0.014437363713191
0.0152178490563698
0.0161532212069278
0.0167291542269624
0.0169854944528306
0.0177678582353662
0.0187077720290527
0.0198202545032302
0.0206397777514368
0.021330312822718
0.0221507969260612
0.0227978315801544
0.0235044988943039
0.0245149311902713
0.0253001046461895
0.0256358968788527
0.0261193214926932
0.0268372975016058
0.0276428651441045
0.0282486453122804
0.0271174734732964
0.0266453993244994
0.0275269939424996
0.0278476108941485
0.0274075416732226
0.0272872826274819
0.0273054005763534
0.0270457922868521
0.0267889924478091
0.0263433808663589
0.0255533094865388
0.0252749309473265
0.0257167662442539
0.0256440490325082
0.0249176954867194
0.0247535784673399
0.0244784830734881
0.0239864124007682
0.0238032559021397
0.0233271560123347
0.0226106204372797
0.0222806350112003
0.021878605809247
0.0214472076180802
0.0209168805145494
0.0203150907771984
0.019870285326847
0.0194817091885463
0.0188716850295908
0.0183671252746155
0.0181196596568025
0.0179161616693063
0.0175873625938852
0.0172678811247433
0.0170800701548132
0.0169252213690178
0.0166556140476348
0.0161926628203881
0.0158174360953894
0.0158565974997813
0.0160256341449978
0.0158008571759025
0.0152004670333893
0.0152255218973931
0.0152512978901154
0.015020656239433
0.0149943080563846
0.0149685514523441
0.0150427802486534
0.0154866876478146
0.0155907933290628
0.0146102411854709
0.014487856524972
0.0145099931007439
0.0144862491718163
0.0147101574897725
0.0148854608423024
0.015091914368014
0.0150668405922529
0.0150635853487428
0.0150687663961049
0.0144390575073671
0.0141017574580149
0.0143810676589116
0.0143680020544691
0.0144213942984114
0.014806117269866
0.014788051190701
0.014427805125519
0.0143466219871265
0.0143491031892621
0.0137675833162676
0.0137986950017167
0.0138323978691665
0.0134689595232908
0.0135204746821449
0.0136223801159147
0.0138501570453152
0.0138895083635183
0.0130942217270306
0.0126811741026819
0.01284041196143
0.0128607761275005
0.0126663280668897
0.0124694398298518
0.0124009013380638
0.0126161461551808
0.0125920331188085
0.012379945220261
0.0122775621347546
0.0122257221682567
0.0123576836114858
0.0124226111485846
0.0123786523234915
0.0125234118221557
0.0126366900833543
0.0126076570272366
0.0125051508471358
0.0124606928573277
0.0128154323197817
0.0131308511490278
0.0130176389494299
0.012908791803451
0.0131936757600756
0.0134212431863814
0.0133343306324045
0.0129502653536491
0.0131390343770445
0.0133936232027459
0.0136933203278933
0.013753623228113
0.0138407939068935
0.013957232489589
0.0137918422858128
0.0137646299705931
0.0141400572935138
0.0140242656005109
0.0137408295687716
0.0141196678283411
0.0144021566154535
0.0142749958727118
0.0142455995161888
0.0144098405322294
0.0143327798004636
0.0143825363234123
0.0146806513809121
0.0146166538851049
0.0146202779467973
0.0147237421561407
0.0146054821336808
0.0144492821826387
0.0145521599867226
0.0148467731846732
0.0147414269769645
0.0144453465421379
0.014454212971261
0.0144426919222163
0.0141930890827364
0.0142090101295331
0.014334447772352
0.0141696489804756
0.0141419549906746
0.014048014916421
0.013809364243364
0.0136122346148159
0.0137837464742941
0.013939231211915
0.0138880235727977
0.0138118814420253
0.0138540746903219
0.0138674619843725
0.0138503091159545
0.0137511002991479
0.0136014829928674
0.0135341410957333
0.0135839342572263
0.0133323168184178
0.0130997900747274
0.0130984114143606
0.0129681209339194
0.0129607409038675
0.0130179269348711
0.0130447539447933
0.0128977400659324
0.0127040009456169
0.0127008464659101
0.0128427333416893
0.0129722754433051
0.0129415167270086
0.0129160062411951
0.0131287819812553
0.013444878066073
0.01376421756576
0.014206610573483
0.0146770502322736
0.0154953479964135
0.0166353298653569
0.0179417166287616
0.0190961712165574
0.0198256382558633
0.0196614634748688
0.0185867905606937
0.0170942869364177
0.0156629002489666
0.0147224143081756
0.0140899922674417
0.0134968114578484
0.0131812501110663
0.0128540551799398
0.0125918151464351
0.0122601997627056
0.0120504786564834
0.0120863313485409
0.0120364145301345
0.0120047534349066
0.0119232871035931
0.0119281793246008
0.0121153516658743
0.0121146250888044
0.0121698268573344
0.0121843298968613
0.0121172490462568
0.0122033644302401
0.0122069529058469
0.0120920326665457
0.0121137203042357
0.0122459339238832
0.0122573262727689
0.0122528536614761
0.0123484411341174
0.0124464481609499
0.0125493930283324
0.0125363600007087
0.0125195683062076
0.0126573660292203
0.0128688179222827
0.0129552954329383
0.0130479563019616
0.0130960063806656
0.0130196225096736
0.0131056272806465
0.0133411007771478
0.0134725590557813
0.0135341326417204
0.0136067198658799
0.0137101785542365
0.0138657330530582
0.013985510467163
0.0141679086103914
0.0143815710472495
0.0145266610840159
0.0148823609498059
0.0152372576680055
0.0156083052837322
0.016062515663291
0.0165595207983351
0.0171584974334377
0.0177719623993978
0.0183413212317703
0.0190836849020978
0.0199220763109062
0.0207252608390005
0.0216389212332725
0.0227251197853251
0.0237502634926863
0.0244990889880691
0.025446154230897
0.0266124425210588
0.0275212517637373
0.0285474021584243
0.0297681758680303
0.0310071217610434
0.0323079586365831
0.0334403966679597
0.0346528213188744
0.036153463662124
0.0379528854200115
0.039555549924852
0.0412127931983042
0.0432690393828539
0.045345155784571
0.0473569670170591
0.0491760686933898
0.0501702050376236
0.050200051209688
0.0495167305095507
0.0489363644759955
0.0491630757771994
0.0501278358507564
0.0514693816491227
0.0530149895228061
0.0547220736117363
0.0561227202583986
0.057612987838964
0.0592165813006697
0.0605941643055629
0.0619859287164975
0.0635891617676941
0.065231952072497
0.0665129351046818
0.0677551050677136
0.0692295689337219
0.0706089994435148
0.071912242617167
0.0733796526470728
0.074852067247875
0.0762965803874746
0.0777052933388924
0.0791832661378814
0.0805368949211054
0.0817054442609368
0.0829028214363932
0.0841732454005838
0.085337190034201
0.0864349240021517
0.0876147322306548
0.0889897891043499
0.0903220045875906
0.091425869732549
0.0925129276051088
0.093519659572048
0.0946847894956391
0.0959378174441178
0.0968741611444463
0.0976392908080663
0.0984121042638112
0.0991791124157289
0.100007071356874
0.100884687660182
0.101699027595297
0.102675630444801
0.103942359368148
0.105415335744385
0.107242123279977
0.109700801453813
0.112735803826895
0.115927363018348
0.119203609786592
0.122321965406095
0.125632801830886
0.129071500595631
0.132531368021258
0.136137301081703
0.139858746710274
0.143463800867619
0.147116955530183
0.151003298203517
0.154957213338442
0.158616201755187
0.162222176254541
0.166050305876702
0.169854596732677
0.173328809485802
0.176673230650068
0.179570611913826
0.18189296010511
0.183954769717495
0.185723013543312
0.187358626482276
0.188893310300657
0.190618326744011
0.192246685709833
0.193804220781392
0.195595753065111
0.197307010938041
0.199113460661681
0.201023022742276
0.202476604054711
0.203780866327753
0.205182995601514
0.2061148700897
0.206515524076199
0.207091755857357
0.207653390117715
0.207740450377554
0.207663935296814
0.20758460571394
0.207313255250287
0.207089346639191
0.206397586823847
0.20549763126264
0.204427851369288
0.203176671803531
0.201367322766693
0.199375375441483
0.197389933746975
0.195199528568952
0.192863259699376
0.19036716951809
0.187715529848625
0.184835691217918
0.181945351124896
0.179681626005037
0.177022284824307
0.174098169274992
0.171397937678492
0.168826959921551
0.166216891232761
0.163945682385322
0.161922079264956
0.160052248006119
0.158307399416021
0.156787065607811
0.155464434680059
0.154135247224549
0.152730132859176
0.151527933712738
0.150427323760638
0.149263699631863
0.147938227800869
0.146856319795178
0.146055151086355
0.145373964839401
0.144691285347601
0.144212085772235
0.144113413307289
0.144346294241522
0.144374812358622
0.143721143367446
0.142497329654985
0.14118195056621
0.139152719258415
0.136444690226369
0.133925501583164
0.131347410828331
0.128277637446797
0.125316757590641
0.122786779804707
0.120517666653969
0.118090028676604
0.116004799865997
0.114431638883936
0.112782963119952
0.111290839792809
0.110089147619636
0.109029765435
0.107876547658298
0.106556574634206
0.105333805093227
0.103863523070384
0.101381549397927
0.0990703488363757
0.097257514000013
0.0947460007403206
0.0922965768144222
0.0902214292624917
0.0874876400811428
0.0846478854237453
0.0824083701197856
0.0804517447369112
0.0783007156047392
0.0762509608528089
0.0747750068790318
0.0729450310824756
0.0708084708128341
0.0691170246744041
0.0678673176307544
0.0668956578950455
0.0664744449724515
0.065901717964446
0.0649901575422078
0.0643988003777871
0.0640768841363741
0.0632652198625459
0.0624541029873895
0.0620149287534048
0.0615410236687158
0.0600675004291195
0.0581953923727124
0.057809067613373
0.0582258992768742
0.0593807546719899
0.0615459729806862
0.0638160026467926
0.0675334109113181
0.0741118364732458
0.0815701941321441
0.0882302110451375
0.0941959211432984
0.100111514416079
0.102173666915885
0.100296719466441
0.0991861434304497
0.100052086315172
0.0997889658290884
0.100314382707604
0.104210826950746
0.107783048101534
0.111237332675553
0.115125352905624
0.11534735019289
0.113417186226022
0.113258623777134
0.112637203860044
0.111545387751085
0.110241799006405
0.107624108525699
0.106287849119958
0.106528908533607
0.105955815192637
0.104576986975301
0.102844371457895
0.101651206893035
0.100015348188055
0.0986660755965441
0.0985677578045052
0.0977467105598881
0.0960088523405001
0.0952710275750953
0.0942534094340035
0.0917560329923929
0.0900712193574823
0.0895975040509246
0.0877855875192829
0.0864591603355539
0.0858869751535708
0.0859258156830508
0.0864049380581994
0.0859201268072095
0.0848837510339551
0.083324546286474
0.0824584696622656
0.0816873357081091
0.0808672729795975
0.0800606811577766
0.078644261531319
0.0775243401121088
0.0770490961790986
0.0759448556728273
0.0755870353983128
0.0771778517348512
0.0791058876006696
0.0825473429237021
0.0883394034796275
0.093657285564766
0.0962152559153914
0.0956789412985356
0.093555803689561
0.0906318556932131
0.0879847360617782
0.0862733341605108
0.0836228488581731
0.0819855239134742
0.0843007675659298
0.0848728585330434
0.0808276527912444
0.0763878995434675
0.0757792396506589
0.0766348139640123
0.0753857077047572
0.0750911775355747
0.0758551239498475
0.0731605283963956
0.0696357102311265
0.0710151459848989
0.0753317710901052
0.079627026068901
0.079131795721765
0.0741042931128571
