1798
3999.43349933624
650.420452594757
1
2
4
0.0111903114779126
0.0104450708853798
0.0102111840930545
0.0106848812851366
0.0111486626171287
0.0113285067571278
0.0111151330730067
0.0109605644706221
0.0114422180814287
0.0114564074657761
0.0106828974554203
0.0103139651096808
0.0101562674243689
0.0103453270449845
0.0109837598389023
0.0112096946421805
0.0112524754717021
0.0112764253816186
0.0110424288655045
0.0102867494828897
0.0095082172334604
0.00992642410522643
0.0110818604525975
0.0119012267382866
0.0111694701120155
0.0101371796923254
0.0102419822267284
0.0105034684746561
0.0103961105941921
0.0109944400881496
0.0112768669760085
0.010828159052354
0.0104589515066187
0.0104113452966342
0.0104791835928762
0.0107072509009623
0.0105636475641295
0.0105238348707917
0.0103700313913449
0.0106038611560062
0.0109890437280747
0.0107629712377252
0.0104406790110248
0.0105698702078908
0.0107012243346684
0.0105384633665166
0.0104651394340851
0.0107052456578258
0.01041437212413
0.00986786167084436
0.00991383415699735
0.0100446578317684
0.0101331019794985
0.0106389663325027
0.0103527966493112
0.0099608909036684
0.0102186537124827
0.0100591205906469
0.0092957682429798
0.00928897418537106
0.0101721019573551
0.0105138390850003
0.00969827917923852
0.00875487211025658
0.00902590110272798
0.00985556846729947
0.0099776725159749
0.00969440958407611
0.00949051770100021
0.00950896732366054
0.00954897226344235
0.00983255086222022
0.0101431134584764
0.010000579419522
0.00925571204795496
0.00921627615062587
0.00984235596594164
0.0101047772280701
0.00889049778338286
0.00877275042606592
0.00937880982277433
0.00913904035310304
0.00943945134254459
0.00976909020514271
0.00976439093242999
0.00977796304499013
0.0092395348547947
0.00842878526459683
0.00889011024144071
0.00969534162414508
0.00935646170714508
0.0095363724633823
0.00960687412835939
0.00904281248533532
0.00909852548166998
0.00966113809744297
0.00942979251948253
0.00943671132686709
0.00972396051832137
0.00908776466731322
0.00877496038122849
0.00918959344461886
0.00977029233402841
0.0091012435361159
0.00837115984131526
0.00845376651990945
0.00857256771762014
0.00866350718403771
0.00900474711315843
0.00908056729336478
0.00925849464521228
0.0090530547274331
0.00883746013487786
0.00890623835919719
0.00880514213231277
0.00857904556571516
0.00897402058592304
0.00951542111356865
0.00977727928436133
0.00925462218891271
0.00875357084775532
0.00891596287157622
0.00922918857307146
0.00908479296085815
0.00906285371714445
0.00925566288352352
0.00984913018553044
0.00952338974195768
0.00883626756172854
0.00907690217396538
0.00897125221536634
0.00839473954674515
0.00849852144795641
0.00864361755806671
0.00810222506131422
0.00760069832625522
0.0078724835634804
0.0078496695155583
0.00706821223838194
0.00718834777107947
0.00797514048675627
0.0076862506028273
0.00730767200425665
0.00793391408957381
0.00787490031491641
0.00776331428193146
0.0075771341787382
0.00771299557288159
0.0086028985950682
0.00896607407166916
0.00888784115937692
0.00877743269983712
0.00850717871798377
0.00811731907057937
0.00776860516992444
0.00819847399481396
0.00871810022507498
0.00852942921420888
0.0089967735635084
0.00935650041031745
0.00925472954303738
0.0097293333074666
0.00983928966310861
0.0098410681451555
0.00976771205871076
0.00975722271957355
0.00931744755032937
0.00888843702511089
0.00989743620486495
0.0104256074247148
0.0101768125402614
0.0100267260811368
0.00987458633561535
0.00998895850468245
0.00972878207015406
0.00954331153066871
0.0104282804711995
0.0106185741194648
0.0108056931498853
0.0117106938560361
0.0121511444770999
0.0120117847249018
0.0119857053248918
0.0122121337128751
0.0121561402374213
0.0120714610513303
0.0126703837747546
0.0132222858915776
0.0138382931925601
0.0144884919416439
0.015034151881256
0.0156753324287507
0.015673434964738
0.0156188063426042
0.0158632171681423
0.0162509078254678
0.0165356389291626
0.0165096647827848
0.0167370958791064
0.017265842502294
0.0178879509861025
0.0185086152066072
0.0185918328601908
0.0191114846973309
0.0198747735342958
0.0193954607940323
0.0193909504145165
0.0200242068561889
0.0207323871077296
0.0211471588068214
0.0209120964059973
0.0211750579988513
0.0216135617539766
0.0224861332468645
0.0229694745624516
0.0236962326530508
0.0243839598188591
0.0248647193167859
0.0254722104186542
0.0248146362257533
0.0245387974427192
0.0253454938223646
0.0256096957280015
0.0259395933334686
0.0263677311267185
0.0274583301726279
0.0281824696405768
0.0289005477112128
0.0293651564621906
0.0290980527766171
0.029681326336943
0.030993873218843
0.0315794627498452
0.0320643024764479
0.0329226711356662
0.0337381163455477
0.0331008196474784
0.0330071436580092
0.034067979794876
0.0345728911152235
0.0346133639008045
0.0350541605586218
0.0368206868478076
0.0379841415074535
0.0387316399098898
0.0385285190664887
0.0385676319164065
0.0391908958152843
0.040408766334633
0.0407034391135075
0.0410133691700076
0.0407645360127446
0.0412984692190015
0.0417690915109408
0.041139785238537
0.0426825033672144
0.0444561566572736
0.0437250100303722
0.044313119223139
0.0456047432152156
0.0455053593791654
0.0455909830780716
0.0463593495210934
0.0473592126458817
0.04745103507949
0.0473374939448482
0.0493580647347978
0.0504609490299393
0.0496124912454859
0.0496374991230392
0.0504778810361051
0.0516354033487997
0.051909591476329
0.0519797513964004
0.0526662045659657
0.0528901366713486
0.0532454027584781
0.0538308065219586
0.0550669721309607
0.0554980860756907
0.0555702777099075
0.0561917032381899
0.0569652516788768
0.0569057058732395
0.0571227445198678
0.0583607017755135
0.0588965177588025
0.0596815368437915
0.0603291072698993
0.0610639436560034
0.0618938792580452
0.0619531604429809
0.0615543229544922
0.0625236207906437
0.0639212740264728
0.0638023477557321
0.0643700887807948
0.0654215427827773
0.0651997612657385
0.0658975061060642
0.0661865208055833
0.0655648744802649
0.0664441278355843
0.0676271489789554
0.0679775515854896
0.068590807450069
0.0691746036429906
0.0692520618017202
0.0693268298445782
0.0702195619954891
0.0709416803845948
0.071434101670587
0.0716640786437174
0.0719906457434725
0.0718454214674425
0.0722854459252454
0.0729557439080184
0.0728603597702199
0.0732409897742791
0.0737002579060304
0.0743005194307257
0.0760936428213918
0.0767368802565901
0.0760264525615007
0.0761829754331884
0.0769068123764065
0.0763259901122495
0.076362283147742
0.076841203619449
0.0777725262174715
0.0785251806548166
0.0783373640757931
0.078470354868071
0.0790966924375193
0.0794906303218646
0.0806483772326399
0.0813893033450116
0.0819862422606397
0.0820279034211529
0.0831171807797679
0.0843709863118334
0.0843122524730374
0.0842577354142996
0.0851491586054332
0.086573293025231
0.0874277572309633
0.0873910981368344
0.0880459509335035
0.088305956405706
0.0881508921953102
0.0891800326891923
0.0905172023458684
0.0910879258960528
0.0918134935750234
0.092794633042809
0.0942389521941698
0.0954681418188867
0.0965883065739164
0.0967015922720192
0.0965403284656441
0.0969448463293969
0.0981357155754973
0.0992331477031117
0.09994056931506
0.100702199029651
0.101549113491116
0.101782786478538
0.102182731200551
0.103094858499771
0.103636532248369
0.103937501157994
0.105019793322284
0.105487818199131
0.105793014898998
0.106257759085833
0.106472345677999
0.107023833423035
0.10741993040587
0.107303544178059
0.10797508907446
0.108917909355402
0.109109623733266
0.108540165485836
0.108201709792379
0.108814224692965
0.109310376944748
0.109724285913843
0.109752457101932
0.109784525757403
0.11012585749639
0.109651953796455
0.108857412624209
0.108950696849054
0.108944795298068
0.108247329087491
0.107863460594359
0.108578357801675
0.109220929398776
0.108887952253271
0.108576906283596
0.107798655248311
0.107122975433679
0.106616535772941
0.106086023415062
0.106346562265057
0.106213241354469
0.10536648169863
0.105199124421599
0.104595337274428
0.104221701080212
0.104522961661994
0.104521256741099
0.104257191354625
0.103910134125683
0.103658562596816
0.104185796732995
0.103936432166156
0.102983225848426
0.102697822021818
0.102798181866831
0.102552831165719
0.101853856134069
0.101089987917473
0.101185100103683
0.101349147880335
0.101077704878205
0.100520692671764
0.10014739994479
0.099663231056736
0.0996283118464179
0.0997139250588495
0.099144153629889
0.0984599068183766
0.0981664395994893
0.0979239431403612
0.0973298503610683
0.0962838025656296
0.0953105716551336
0.094993980997617
0.0947897011531474
0.0939608720182816
0.0933737416186386
0.0932470045172278
0.0927196190383342
0.0921472903417875
0.0916770714233208
0.0911938901938906
0.0907469491267679
0.0898383362581747
0.0888190327744869
0.0880316654605347
0.0874164078241146
0.086594837767256
0.0863841919943848
0.0864203065603061
0.0856903339767679
0.0846335458611
0.0839437811927105
0.0831411305182304
0.0826286641495481
0.08245249255056
0.082071814062744
0.0814101081971527
0.0805970074660791
0.0799504101776602
0.0795081046890348
0.0788581700082615
0.0783686123828731
0.0782540808908534
0.0781245524796717
0.0777413581562148
0.0777308682704022
0.0780555787775172
0.0776013422664209
0.0764280845985794
0.0757457717635403
0.076390610033085
0.0768752430862274
0.0762683769891467
0.0757936099438404
0.0760321855943253
0.0766196964491438
0.0768534188669767
0.0765788457346456
0.0765313968857451
0.0767980643747774
0.0772317735150342
0.0775645712847859
0.0776822798865896
0.0779905063039245
0.0783942680408017
0.0784789005723068
0.078097728703299
0.0779883217574568
0.0781668362911371
0.0779893468889065
0.0780632332633378
0.0784431500302068
0.07855961630582
0.0779640916479474
0.0771044872517912
0.0767912352671626
0.0767045417654936
0.0766744865883644
0.076414922475544
0.0759691827429525
0.0751927330218839
0.0744256787126703
0.0739645351695346
0.0737173719667254
0.0736414094009553
0.0731831662810961
0.0727137145369126
0.0721348162627049
0.0708814318195351
0.0697824980412321
0.069373860278019
0.0686992894569712
0.0678953278723123
0.0675523543179728
0.06731299441711
0.0665443491642712
0.0656730885581283
0.0651702243226894
0.0647427619215699
0.0643316266642363
0.06385272065571
0.0632643383417877
0.0627748572454317
0.0622897778647033
0.0619170772959611
0.0617192377462774
0.0614661265529601
0.0612817710378955
0.0611380975681333
0.0608583483327046
0.0607743271103325
0.0609907670872862
0.0614780210526202
0.0617894082645881
0.0619146470059087
0.0621542404113359
0.0623574256750578
0.0628063967239942
0.0633411313814834
0.0637864057699245
0.0642406570017114
0.0647561280807242
0.0654919155172271
0.0657994368199572
0.066176685244586
0.0670059348256893
0.0675270702706265
0.0680007546502671
0.0686037705394937
0.069288292604812
0.0701030640858254
0.0706201004807886
0.071065569708949
0.0718783383425722
0.072652349387323
0.0732657136809935
0.0738707822268086
0.0744342271229753
0.0750064338079666
0.0751061984138675
0.0750116782141202
0.0758471370127468
0.0772426493712444
0.078185793409231
0.078933895589521
0.0797274510548914
0.0803677378604816
0.0807606721451579
0.0809963409237216
0.0812950822198861
0.0817690984901499
0.0819674812717475
0.0816061714266285
0.0810575892443481
0.0803209419088436
0.0793879468976439
0.0785479258127813
0.0775950259639765
0.0764330597885711
0.075274955572794
0.0743509611292336
0.0736126739782891
0.0732109076984783
0.0728374631109626
0.0719222052973121
0.0708795976124449
0.0703037350831001
0.0698979159662125
0.0695781389286793
0.0693159836416045
0.0689424621374077
0.0686232035816915
0.068518382533507
0.0682560489972181
0.0680394897205101
0.0681843914656551
0.0682951718446907
0.0680307027835806
0.067305809283735
0.0666473410577856
0.0663272328426363
0.0660876730921905
0.0657055987443181
0.0648613997523772
0.0642183265109443
0.0639897374323384
0.0637344189156612
0.0635117454548985
0.0636953526424964
0.063980127102643
0.0639620682376354
0.0635246436436375
0.0626918518217069
0.0617262265885626
0.0607559095853735
0.0600399836529599
0.0593195836768179
0.0586154692647955
0.0579938379718846
0.0571094400879903
0.0567471540019991
0.0568311040790595
0.0567218602142035
0.0561725442295359
0.0555644104715019
0.0551025947736306
0.0545647938144186
0.0540084966192803
0.053502103605238
0.0529728704840776
0.0526536469184323
0.0525206728684243
0.052192917228535
0.0515371289607102
0.0511819972533098
0.0512031519381986
0.0509935004346386
0.0506767804017594
0.0502857106216372
0.0497377027915899
0.0496854686107264
0.0496954288870907
0.0494404853554505
0.0491908191675292
0.049131438208121
0.049040832197563
0.0486115088984056
0.0480974509051271
0.0479447603830786
0.0477876855737347
0.0473475090401651
0.0470000495198434
0.0470948488988448
0.0471264945384519
0.0466634055238169
0.0463906825581543
0.0462724111928058
0.0456619918162707
0.0452314594268884
0.0454580318782931
0.0455348607764614
0.0450647492965321
0.044784891543877
0.0448606926919293
0.0448351423771588
0.0444506939640328
0.0439776095666035
0.0435240159770138
0.0434628390778586
0.0437894984912915
0.0434134193775147
0.0429930476217336
0.0429010050268507
0.0425319959414938
0.0424598123856809
0.042499038019015
0.042233326173783
0.0421479217266008
0.0421522794960188
0.0419076144511671
0.0416233446797687
0.0414249165518319
0.0412170979386429
0.0411713535559804
0.0409247615447584
0.0405438176183166
0.0404539996252665
0.0402734622786389
0.0401455934997801
0.0401970096888979
0.0400516630829983
0.0396543092537141
0.0395813169542516
0.039670855277668
0.0394525082785669
0.0392624116335693
0.0391535410553634
0.0390335304720614
0.0388682114009552
0.0388353132597513
0.0387879216918053
0.0385207717413024
0.0383962213154482
0.0383714215254543
0.0381194680390363
0.0379864088351407
0.0378714610642712
0.0378207882857596
0.0380274528248818
0.0378404809912427
0.037609877652446
0.0374728311962182
0.0375093413374364
0.0376909400934832
0.0377728888480203
0.0378086083768815
0.0376860899890735
0.0373859069133511
0.037142223782489
0.0370791405588374
0.0369735555213957
0.0369618389791594
0.0369273921724006
0.0365983228395161
0.0364779845069409
0.03641034750309
0.0359085182814296
0.0353082801949318
0.0352325529656846
0.0355045650366766
0.0351884967666827
0.0347711759010425
0.0349268541291391
0.0347639068822648
0.034267331170048
0.0340160876917116
0.0338909489651548
0.0339245625661755
0.0338278446159984
0.0336037342482739
0.0335245769346592
0.0331801145047129
0.0324724530594581
0.0323426939377258
0.0325301039891784
0.0323054672610379
0.0322098391490819
0.0321596183579405
0.0315274050070182
0.0312276794884681
0.0310008245691665
0.0311621012724118
0.0315854186272818
0.0313671196671036
0.030818141380953
0.0302790000025895
0.0303853656629171
0.0305278856941342
0.0304435527569887
0.0304629483230864
0.0301237089923848
0.0299298681163788
0.0300436429440903
0.0302344360815458
0.029733614530363
0.0291138215928291
0.0287111325884046
0.0287324660930916
0.0293016681097222
0.0294604844789381
0.0295692425786789
0.0294988713793678
0.0286527285230507
0.0280415094794859
0.0282324794910925
0.0280650288532328
0.0282535979885559
0.0282171699081321
0.0282674242518088
0.0284535219554166
0.0284902676545371
0.0282164382995294
0.0277936384571332
0.0274768408519395
0.0272730401989932
0.0276470855193753
0.0280929179967575
0.0277758610895655
0.0275668349345813
0.0273163429797149
0.0271851671560597
0.0272289328448142
0.0273264171755167
0.0274029729489022
0.0269524627359611
0.0268380348185856
0.0269541050730426
0.0267038280665237
0.0274564207893246
0.0275482424389109
0.0266985553542127
0.0262240716907263
0.0262496430357503
0.0264600750330553
0.02686798679294
0.0270698881792043
0.0271546401308688
0.0267373091670791
0.0262366932532988
0.0258857204045656
0.0256275694733599
0.0255540987907033
0.0255976233486332
0.0259646964258355
0.025953780267419
0.025760006445865
0.0256835767967142
0.0252204135518181
0.0253277734416761
0.0256220751010589
0.0260876122268242
0.0262882423788891
0.0258473197118062
0.025701993822798
0.0254730774067022
0.0253151240218914
0.0255294440398922
0.0253492573211815
0.0252089396669305
0.025311322066009
0.0256290496328287
0.0253222004723556
0.0249754454931719
0.0248363213939798
0.0248829081431891
0.0250752321653541
0.0250193399735397
0.0246984708905457
0.0246545901617014
0.0246826009673551
0.0245363234013358
0.0246505138335362
0.0250074082818394
0.0248349213362038
0.0245614516329338
0.0244956287784427
0.0246326526694081
0.0247367456184441
0.0247040317630788
0.0242482014248615
0.0237039876647417
0.0234719844591136
0.0238335904923539
0.0241339991772727
0.0240491677151184
0.0242492074989334
0.0240822725826058
0.023966902971721
0.0245164509483644
0.0245215666600115
0.0243007119551799
0.0241329617198361
0.0241271238176303
0.0243743161822382
0.0244561861280421
0.024260471903427
0.0245200985103378
0.0244847021885455
0.0240952437235755
0.0237532717004546
0.0236273813233077
0.0237563484029612
0.0238580556109909
0.0235644716530137
0.0231318181171114
0.0229272504220092
0.0234089965255313
0.023396802349243
0.0229111716139167
0.0228760945716317
0.0232368544263866
0.0238038316638633
0.0244753412382111
0.024560804396354
0.0241017448905648
0.0237331100547501
0.0239987856114019
0.0240737758474513
0.0236316182672293
0.0235945329494664
0.0238463082414783
0.0241717167482325
0.0243021961612413
0.024838092165673
0.0249016354004537
0.0240381702789206
0.0238167430464335
0.0240212637638475
0.0236171218160842
0.0232583674992025
0.0236899916788866
0.023887964474093
0.0236011146120268
0.023315676825443
0.0233587223808245
0.023244790923488
0.0230675353660245
0.0228723600191199
0.0228248500772819
0.0229268092291493
0.023227598481379
0.0235185156670304
0.023328820511219
0.0228388071442674
0.0232758500218848
0.0231189173438861
0.0223798497799899
0.0223271795684146
0.0220312302723237
0.0210963391136986
0.0208199201118794
0.0205135071931978
0.0201687689212472
0.0195721510246104
0.0196824425532389
0.0203440385729725
0.0206188225918514
0.0200367557116197
0.0191291679339435
0.0187296926352705
0.0185470954136173
0.0189589477556084
0.0195341330430079
0.0188627562459185
0.0178740395546094
0.0171027674806659
0.0175434307027455
0.0184989183755728
0.0180229966019702
0.0182057344949047
0.0178885892785195
0.0164714556425213
0.0165301963989026
0.0176243644975534
0.0173233590908103
0.0157329224282643
0.0150909406044066
0.0168088852228375
0.0177282223674707
0.0178523516853269
0.0169981656907678
0.0162384347405914
0.0163987862654822
0.0157235902052531
0.0154658247859189
0.0156748593646412
0.0157940794629452
0.015465102148843
0.0139253425980408
0.0137381182861419
0.0147381302145692
0.0142474390112092
0.0139405351797387
0.0136407863505111
0.0138122079613104
0.0148303026313022
0.0152194938695254
0.01372765896064
0.0127411532430064
0.0145012176220772
0.0141578708737702
0.0125663196601447
0.012219795654105
0.0123936755714315
0.0132748634921349
0.0117875754453709
0.0113421114045456
0.0122900309726815
0.0103079569577801
0.00830457347032446
0.0086226646987488
0.00862467830985074
0.0092969199044997
0.0109142643762788
0.0106705202490609
0.0117390849826795
0.013717146756423
0.0122520029318902
0.0116039827089011
0.013882571223174
0.0153085361155979
0.013781618174514
0.0137540038469505
0.0151104342049232
0.0156275379765597
0.0155753497608495
0.0161287724347637
0.0164537063326688
0.0165625631652677
0.016077942705812
0.0168172731067224
0.0184799593896564
0.0181214166965637
0.0182253623999007
0.0191451057565423
0.0190042279782607
0.0185416720593741
0.0186078791599761
0.0190806928754504
0.0193365720376977
0.0191938173633
0.0184125062908691
0.0176557740833638
0.0178403489354129
0.0181043828082852
0.0185117137508721
0.0191157181603247
0.0191220507138036
0.0185076495371211
0.0174173271000993
0.0171438866502789
0.01826297644858
0.0191184572426867
0.0184115159473981
0.0185622116268637
0.0186344451404481
0.0177537414370479
0.0172735577724687
0.0168131154925226
0.0159427035959931
0.0157095078059405
0.0160940396356248
0.0163492326637741
0.0159492427687329
0.0158705112249739
0.0168626927122359
0.0162860011931596
0.0134038555461211
0.0132388153372944
0.0148322399503244
0.0152269421464396
0.0141873046053552
0.0122930637363105
0.011486502530276
0.0111564237323569
0.0115923901240024
0.0126253856879747
0.0120801559426366
0.0110930882834885
0.010208699862579
0.0114077127815501
0.0108863455103211
0.00929159219799606
0.00929716418855201
0.00959366393940043
0.0103224643000127
0.0103607142441401
0.00976177178464141
0.00887597520752929
0.00994387515196352
0.0127909199498264
0.0136001027519004
0.0119013302431647
0.0103132014725022
0.010573041465875
0.0111383952248311
0.0123254716757867
0.0133374661755724
0.0136455179166909
0.0133902082646716
0.0120165349158964
0.0102109136165074
0.010720116233364
0.0123776091152877
0.012104145681256
0.0116159772818889
0.0115116692567908
0.01007432429088
0.00918747389769137
0.0105152339661471
0.0112356365704266
0.0106799815649982
0.0105052708907011
0.00982831371551402
0.0107412843162827
0.0117519473767211
0.0122726770046578
0.0116516272316318
0.0117851263776121
0.0129381555720475
0.0127166451563137
0.0119388471323881
0.0118212166648829
0.0123577538283685
0.0128327542440244
0.0126753835848829
0.0133684887605079
0.0141881770246265
0.0140951447036429
0.0136629919916871
0.0132685478567574
0.0136020690904225
0.0145301393752507
0.0148075982946549
0.0142883781071515
0.0137310674141201
0.0139915326085133
0.014732977700348
0.0155362616403035
0.0153377498151176
0.0142734288535348
0.0142009465282171
0.0153148448667348
0.0158203923123443
0.0154715553930578
0.0153907726606629
0.0155334265451152
0.0150811080755706
0.0150525860590764
0.0156175193271329
0.0158654836506981
0.0159177188335233
0.0160244142837829
0.0158833247648436
0.0158282289632137
0.0158188288347829
0.0158296450602243
0.0159663171626844
0.016250821752395
0.0160859392889886
0.0157929059730303
0.015864586867963
0.015710382073987
0.0156560164244402
0.0162338297404516
0.0167102168304313
0.0164884201124785
0.0161022441332319
0.0158702167946808
0.0154428879927967
0.0156164386039934
0.0160866387025327
0.0159746663869114
0.0156547653658349
0.0159919703955078
0.016275858804511
0.0161411211673341
0.0159186742536113
0.01594429965222
0.0157894326468958
0.0158225678688629
0.0162179579269073
0.0160345760948546
0.0156891099926088
0.0159106511791229
0.0160372822066879
0.0158523022923398
0.0158585588502955
0.0158518439282002
0.0157325921465151
0.0161178899080239
0.0165108798602853
0.0162574486776495
0.016002435282713
0.0156666926235552
0.0158800788952567
0.0164157106864207
0.0164334882639186
0.016443446496692
0.0164798337865574
0.0164713771071204
0.0165029423615883
0.0164063395353871
0.0163452343658982
0.0165541668652711
0.016644597306643
0.0164222887487203
0.0163384186624182
0.016716650881104
0.0168748958726995
0.0165727706444043
0.0164228059832181
0.0165386261173339
0.0166383537230617
0.0166341628412999
0.016713445190768
0.0165614098076448
0.0165082533464044
0.0165977080356411
0.0167573295397426
0.0166403252955611
0.0165536950735822
0.0166193330573185
0.0167812271249727
0.0169423690258194
0.0169809952827952
0.0169512631012305
0.0172104923238146
0.0173503415920738
0.0173981488780456
0.0176745427763301
0.0177381015440646
0.0181440199081082
0.0184182132272791
0.0184301902410374
0.0186634442034351
0.0190105704293567
0.0192419965223643
0.019149525211969
0.019647220679799
0.0202648304750987
0.0204011907792314
0.0207030732868916
0.0207448746735735
0.0208900635607785
0.0213424295328477
0.0216813680193394
0.0219455166966174
0.0229523322344897
0.023921816276645
0.0247728532250939
0.026161215930273
0.027776139634521
0.0297830235990843
0.0323387180195169
0.0356027384520633
0.0384652458409834
0.0420296560242549
0.0471354635494824
0.0506351924327257
0.0552297603023773
0.0593589016606734
0.0627811367824496
0.0668860572665711
0.0712519303602844
0.07554134104015
0.0815751741412055
0.087566889406723
0.0925776738972754
0.0988007226570591
0.105247396159816
0.113841581285039
0.122036631405333
0.129432365576108
0.138821943136758
0.148569431740607
0.156481322961524
0.165017124680779
0.174725197442338
0.182970852722197
0.189852137900084
0.196118988770543
0.203152162524914
0.211889340109853
0.213316403515254
0.21470117108451
0.219033907846934
0.221340950974259
0.221460816086641
0.222636539089994
0.22407108903787
0.226308261161551
0.22927014574236
0.228923979357847
0.227208088018937
0.227142104591372
0.227134164896684
0.225281940101327
0.222152647310929
0.217427795761957
0.210615741180319
0.206752212144738
0.203804621251537
0.194802133333159
0.185707176315859
0.180222335921886
0.174986100331099
0.169125677504679
0.162908398983179
0.157218302992832
0.15186431603906
0.147166118816288
0.142889837996553
0.139258871875326
0.136093501379521
0.133038202812038
0.130731363991533
0.129264209543236
0.128127363863677
0.127685335363824
0.127663276996621
0.127815401684795
0.128685795860126
0.131546560742034
0.135337767319899
0.135919474470763
0.13746363628177
0.142543065721856
0.147767563242891
0.151421607326858
0.156474737681489
0.16243012231186
0.169338632260557
0.179321979445325
0.183596984657943
0.184374038724636
0.189153556728482
0.194468249744106
0.199609463331943
0.203516903900904
0.20689755985828
0.210981956089171
0.214099533068641
0.217564855788451
0.215260860491193
0.210366181034128
0.211410321643388
0.213512818906579
0.210118105109044
0.208129337125135
0.20809176244074
0.206729399297949
0.203986629650867
0.203295891643445
0.198662908004617
0.193416695605293
0.191197703627554
0.187152813609669
0.183863047172791
0.181039779681863
0.180335810633571
0.180172427222029
0.1661750408605
0.154205275516032
0.15221609185352
0.152004696055957
0.149662240870161
0.143110730321743
0.134702054336291
0.131821101304521
0.131328036042995
0.125960996773124
0.119475983789378
0.115648705013587
0.11437097886156
0.114005618715566
0.113427164031894
0.114531337195208
0.116770034061641
0.119175497444015
0.120453959037924
0.12007891221553
0.123023795979236
0.128032193448862
0.131976066009205
0.13320521415459
0.136380580636646
0.142593425365179
0.147927263851775
0.145419812771533
0.144692629965783
0.146962924281517
0.149195989208276
0.149722542667336
0.147687196611847
0.146175325218305
0.145220467313156
0.144269646441
0.14477504234578
0.143743391457732
0.137428980915663
0.134676169731952
0.135003434687211
0.134264433487579
0.132959597338995
0.133452746192108
0.134220118444718
0.135039141974772
0.137363040008567
0.135888149346116
0.133322787574195
0.133674865958617
0.134959466160768
0.135906210483176
0.136685749106897
0.138441644044233
0.14023282399371
0.140943254509663
0.142502200536851
0.144809136100037
0.145110755638653
0.145728662943093
0.145263898868072
0.144403315519944
0.145774492308927
0.147676683991039
0.147255556340334
0.146277026180155
0.146946070630447
0.14769000580688
0.147651085335916
0.147176941201849
0.146884335726739
0.145029505453634
0.142478406824789
0.14099200279179
0.139077757920696
0.136882441699881
0.13542339593306
0.132893740843042
0.129594888136254
0.128116441927751
0.128118799326876
0.128480643734651
0.129116536499542
0.130529392147271
0.132530853405253
0.134727682251746
0.136851561987713
0.138898348369769
0.140856806930871
0.141902077108947
0.141485171174595
0.14071603130822
0.139976924370018
0.138962542031647
0.13731214014042
0.135422751816179
0.133538934676797
0.131989273755874
0.130824977735372
0.130283214485275
0.130175715987002
0.129861173963952
0.129455122486144
0.129294874046084
0.128802933627115
0.128107827925535
0.127296110817202
0.126536102649222
0.125948052520502
0.125268512906912
0.124672946202618
0.124405316071787
0.124432951494574
0.124752558690384
0.125280830949113
0.126153885979605
0.127134881353271
0.128222996069172
0.129262893748086
0.130285888983403
0.131128430410553
0.131646277857595
0.131601046704691
0.131305632601753
0.130928192832038
0.130557329734056
0.130320616172411
0.130397022457803
0.130828152490818
0.131542562019248
0.132416031404113
0.133516294629773
0.13491370763427
0.136476029294673
0.138316940826599
0.14053518285137
0.142855107083953
0.145428424526057
0.148350957509083
0.151531785667576
0.154808011174882
0.15829770141545
0.16195883866312
0.165421511563094
0.16859849793215
0.17143089708056
0.173520829803408
0.174769778218441
0.175187385471769
0.174637540490971
0.172968073409905
0.170265323285897
0.16675960570311
0.16289303851025
0.158792180294931
0.154770986763025
0.151368470304277
0.148742772578805
0.146980572306426
0.146264369344097
0.146368876007675
0.147062558982526
0.1475467850447
0.147160389843795
0.145683443102792
0.143271464154072
0.140046856792124
0.136595820589355
0.133388659957235
0.130390325947895
0.127791185480656
0.125432542789652
0.123205820408608
0.121607937977222
0.120671117627109
0.120283772548634
0.120491418113521
0.121279166129486
0.122666231309219
0.12434183604473
0.126223498296428
0.128390552278048
0.130749847206866
0.133111732620071
0.135406132539275
0.137652433084793
0.139742844280859
0.141819098938507
0.143926774253984
0.14603875719663
0.148061844529448
0.149836457876014
0.151180909484568
0.152272575403181
0.153146099218958
0.153789714870672
0.154169597688608
0.154402518556319
0.154567158757808
0.154869302760069
0.155322836658364
0.156025873862851
0.15711359693065
0.158288058697127
0.159558444474403
0.160914078504265
0.162304259832061
0.163807735048021
0.165197744015861
0.166338495113982
0.167385958717253
0.168557508960064
0.169757977885893
0.17118508267645
0.172876795089396
0.174761082075491
0.176754153447754
0.178822376343765
0.181248194813643
0.18413821545396
0.18730734570036
0.191141120775896
0.195947943577326
0.201618692419162
0.207924020049045
0.214842603198956
0.222131673867358
0.229355630932741
0.236087596737359
0.241844298749419
0.246225277874027
0.249513695135693
0.25180053931278
0.25342236727394
0.254880906440716
0.256588863156283
0.258692049748132
0.261087916119853
0.263595608706309
0.266259329919801
0.268879344506785
0.271156020239658
0.272928941601141
0.274416140070127
0.275660480747038
0.276819697562419
0.278107670921108
0.279579793234105
0.281336969625035
0.283413813598747
0.286133269575291
0.289483548475974
0.292586493540434
0.295341064195208
0.297460497878791
0.298572403595346
0.298309378821247
0.297086098183554
0.295075802702686
0.292236315239007
0.288999593006072
0.285427172432765
0.281685071078609
0.278028104966041
0.274190227490621
0.269832021486155
0.264876689689154
0.259464865559515
0.253567650342098
0.247434925482984
0.241503696741182
0.236243250269904
0.231418160715158
0.227120850973487
0.223257480476321
0.219936123044875
0.217190275725516
0.21475772580959
0.21276109421032
0.211059051042403
0.209475265268757
0.207888039529267
0.206339712358183
0.205109724823447
0.204218291464352
0.203386878691066
0.202492822169345
0.201713772375024
0.200751171778079
0.199326623367696
0.196863779554391
0.192949647232296
0.18825845640337
0.183750667982844
0.179293630015396
0.174590628764838
0.170143512029242
0.166259315643267
0.162906275262392
0.160399825371365
0.158073844586149
0.156060776102479
0.154420535266275
0.152971913602093
0.151730170549361
0.150644521790305
0.149432201793726
0.148518383277521
0.147626488117587
0.146455835830974
0.145253848421878
0.144466067276015
0.143779601730668
0.143019406624018
0.142426735487869
0.141522253812051
0.140429449505459
0.139568209530314
0.138719297427635
0.137517561172198
0.135743899550858
0.133820845334136
0.132295912798249
0.131138471964944
0.130186017197351
0.129434546291758
0.12867878096219
0.127982936045608
0.127577583552713
0.127360314493305
0.126817357813533
0.126086875647378
0.125654907147377
0.125483908602701
0.125449040779951
0.125530268079362
0.125435633644479
0.125632206345705
0.125872698671236
0.125456636006512
0.124590872999196
0.123391866792179
0.122276088752856
0.121399720055011
0.120109845110669
0.118500291214653
0.117569478627452
0.116727171315436
0.115755463953263
0.11510180962248
0.11476570271972
0.114243837212043
0.113851733970212
0.113672896250654
0.1138843301588
0.113985048722634
0.114342280110324
0.114981428027488
0.11575916985618
0.117215568173902
0.119174869294466
0.120938642496688
0.122078339607177
0.123439781154778
0.124701030249428
0.125258799291777
0.125513544757207
0.125736367929624
0.126418940047528
0.127227941886288
0.128252778869332
0.129260429315177
0.130520923779016
0.131958746233912
0.133503658153923
0.135364521872782
0.13769480428107
0.140012182599294
0.142280337930707
0.14471532441978
0.146661021286234
0.147797105690552
0.148469149911053
0.148747123148406
0.148909001530773
0.149415736228393
0.150177246181162
0.151444211846458
0.153229922375209
0.155542398265448
0.157383099795947
0.157898212620775
0.15804458089107
0.158558885072693
0.158939225495474
0.158800643353191
0.158470729763331
0.158482172904741
0.158911319192393
0.15956938374728
0.160030336680758
0.160553543285435
0.161584216569817
0.162395637627432
0.162458131240286
0.163107286465305
0.164510055522337
0.165878691108321
0.167444704945619
0.168204229957958
0.168392148428078
0.169111795631491
0.170523171574881
0.172346867349652
0.172408333423739
0.172332342780108
0.173543939790886
0.174280506862543
0.175845733844939
0.178029477661261
0.17975046197266
0.181448836666914
0.182838446729507
0.183940973822752
0.184980538030973
0.186845441860479
0.188093381044326
0.189295199992561
0.191618352742904
0.194147726654343
0.196728425387979
0.199109739500737
0.20205633268337
0.205877631144817
0.209367657302938
0.211137254216751
0.212708003821098
0.214379041253504
0.214340010655992
0.213702030087651
0.213393663477942
0.214242298803174
0.216869343631276
0.22018132920558
0.222599850946483
0.223099390049612
0.223924242548009
0.225192022445593
0.226925363802818
0.228614118262321
0.225899933178895
0.225977276447202
0.230493591129948
0.234914153541128
0.239234023567169
0.242341133593729
0.240941528567504
0.239066929294505
0.237838441833162
0.236572748331748
