1798
3999.43349933624
650.420452594757
1
2
4
0.00242582520444853
0.00210255060722945
0.00191075289910593
0.00212315579930384
0.00214170298039495
0.00185470482905587
0.00185061424114807
0.00209929238387221
0.0018466958867853
0.00202229434358237
0.00236623287745483
0.0017968358081684
0.00155178616928389
0.00161959027661028
0.0016427422777361
0.00158664995014219
0.00141510494093241
0.00172859696074713
0.00214082736559753
0.00211484194145383
0.00235046674835276
0.00286816780299159
0.00253332409473286
0.00213617531019805
0.00179697590087058
0.00147227750887553
0.00183736379635542
0.00224903157224484
0.00207192776357203
0.00215886850917512
0.00219585245764426
0.00235555918487629
0.0025544836208979
0.00233604088667131
0.00237016800686804
0.00247303024030303
0.00199720886734721
0.00152555515240877
0.00152857309459988
0.00197575249843058
0.00232834453704791
0.00191031626413271
0.00158933377438892
0.0018723546113799
0.00218124830062678
0.00245048508385719
0.00241442743484581
0.00222374499873329
0.00229166066084954
0.00246071074583371
0.00244564870342782
0.00181791960586484
0.00117774767028539
0.00181954764224079
0.00235953017354377
0.00214431923317527
0.00190420283847883
0.00187745076231168
0.00154234757318723
0.00145704700629745
0.00187430078196161
0.00204878452418765
0.00188472813847349
0.00196002371463646
0.0023515458397255
0.00221445638212732
0.00180763624719915
0.00197389146736281
0.00198552141926727
0.00200615609709821
0.00192993822964931
0.00209341860646831
0.00204301928709693
0.00186044889759576
0.00179844363220074
0.00146759816311138
0.00101623098262803
0.00145931693997387
0.00188451783848365
0.00200702354289329
0.00229440707099461
0.00203194912050255
0.00184642427699669
0.0017498156813911
0.0015664144067227
0.00209213879530177
0.00260224428835242
0.0023930200400407
0.00192048106214979
0.002007934428833
0.00205022486671548
0.00197618018975944
0.0021504204607177
0.00251432790106426
0.00238424620057528
0.00241522284837145
0.00224216945255147
0.00205352785937582
0.00227836773535129
0.00195977897651018
0.00185381370991285
0.00158474997646358
0.00138333189451548
0.00219930081081812
0.00223381174920007
0.0018260919306576
0.00213906769472204
0.00229735362904636
0.00251956596187957
0.00263778120638751
0.00223567996622622
0.00239541810723925
0.00260178302787109
0.00179740238529072
0.00133358472295467
0.00183677415226687
0.0018948929034664
0.00222969831802274
0.00257784232136859
0.002168362194796
0.00158419728909908
0.00166663385439338
0.00200911141457236
0.00198713417682272
0.00205035375527345
0.00223463891778241
0.00178230454689764
0.00201550934925631
0.00294489333434833
0.00320900661993362
0.00263287903724134
0.00231269055477152
0.00213725243291682
0.00205691596613177
0.00203968591855054
0.00231018502892704
0.00280135040054099
0.00336279844847121
0.0031759969192989
0.00214227053180288
0.00198583259126644
0.0019876426234977
0.00213822925429143
0.0022236257204982
0.00211889767592618
0.00218479554875838
0.00204746602544209
0.0022955429802567
0.00187928435018257
0.00171112446484429
0.00298786506161143
0.00303833755580293
0.00235749740177348
0.00226017670593138
0.00268657209830277
0.00312274941999197
0.00324978037248149
0.00317174244808982
0.00310296979865461
0.00325671906416061
0.0034525579990485
0.00352054560088396
0.00324704112113242
0.00337351918805682
0.00336473432169093
0.00285798114099809
0.00370957370418954
0.00411821181027682
0.00380869195930767
0.00375203643778787
0.00318731280628281
0.00293737060113991
0.00302992853226919
0.00340791168790862
0.00344854174459419
0.00333677250689168
0.00365097858039425
0.00411784320564908
0.00423820242794959
0.00323959903131262
0.00289788007928488
0.00358718861655197
0.00356171648924562
0.00322095911924875
0.00321583193557565
0.00346872210304331
0.00378439105189731
0.00469488163709658
0.00531364995897892
0.00483701385936194
0.00389661647641384
0.0035489782161421
0.00389868092476065
0.00415308618236168
0.00393396663434134
0.00409378055422856
0.00425134396625813
0.00377713494742356
0.00439206716879539
0.00523112341899072
0.00487694260032792
0.00528093439566763
0.00524390392582656
0.0053738873390987
0.00551660988536721
0.00420606078965599
0.00339084094091153
0.00504511992822999
0.00554362697350761
0.00516546672097136
0.00479006308998162
0.00461215736534937
0.00526278062076944
0.00522243433212284
0.00452956758432475
0.00424379864421501
0.00497407396855015
0.00429518402592662
0.00423590016126079
0.00484919195503729
0.00468134340393277
0.00457268084372107
0.00452074851901562
0.00490263139016744
0.00489419092454911
0.00406072162739933
0.00391220307329597
0.00446487660823453
0.00407487337925046
0.0037236577261872
0.00495847740879428
0.00588972682435307
0.00545075888977581
0.00404520589785534
0.00295708411172586
0.00378503046441771
0.0047805287075515
0.00504001966511811
0.00513471923020391
0.00504069106929898
0.00514619039157116
0.00585224304209693
0.00528300742470893
0.00462541916419184
0.0054347025937969
0.00498295308838847
0.00484061566106486
0.00510196297289922
0.00437079088319875
0.00424704751599319
0.0042688726900378
0.00405317033465585
0.00457068498161584
0.00510400981638746
0.00489474953711217
0.00463568436927668
0.00455454619290792
0.00480640506817511
0.00402117946259177
0.00319065420537289
0.00294197056782121
0.00295948193930252
0.00432102422893917
0.00474847047473733
0.00431217385112164
0.00431168313833422
0.00300839764647638
0.00317868203752638
0.00434354225319587
0.00452623292785618
0.00414786776519654
0.00437500208957017
0.00328824342408069
0.00317067654748842
0.00356311699398168
0.002600375300054
0.00304439834818635
0.00436198498267818
0.00501238874138728
0.00483317856096073
0.00473490473416316
0.00570287428503414
0.00558670367133655
0.00435637999199325
0.00376984040653827
0.00392659983459738
0.00416581224039202
0.00446424878559906
0.00478237372250358
0.00397767386234628
0.00328020832060536
0.00332843927689543
0.00451941033251816
0.00484808320131246
0.00418795122591907
0.00377004378893902
0.00469019529660771
0.0055798567710678
0.0053646041401058
0.00456623603979579
0.00412007630541812
0.00511611567395115
0.00596160581036568
0.00511734908103665
0.0049530211505792
0.00471578171655008
0.00389974814983537
0.0043958358071847
0.00502030417772386
0.00490140477908191
0.00572374843641379
0.00632739347794104
0.00542308226421949
0.00523286239089188
0.00473758969990463
0.00445371904556556
0.00460526344728843
0.00439899793586463
0.00379475223698218
0.0041989605610366
0.0051558974435141
0.00495282121160272
0.00477626434245174
0.00491678551429759
0.00467563786814126
0.00425680812376626
0.00449101540713651
0.00442589885493575
0.00441584717481926
0.00501691983213882
0.00450318746514705
0.00403833853947724
0.00449798681312931
0.00501991665866745
0.00544042826442429
0.00495142691791271
0.00436340148836882
0.00507371214842019
0.00500462482617645
0.00472271763240241
0.00466669600120036
0.00391268917629964
0.00412510418123997
0.00459645342083506
0.00491026669373812
0.00528652074518312
0.0055817488548341
0.00500200661018071
0.00419417169763808
0.00400936464939542
0.00424433553314095
0.00492651828374478
0.00510788131863333
0.00531124975425079
0.00480357126980452
0.00443635911013692
0.00480136331851955
0.00451668674735025
0.00414011912318686
0.00490236429511757
0.00546816678878581
0.00475284641524695
0.00413655675461273
0.00427837056592888
0.00444873140840395
0.00493861473526213
0.00523840316831235
0.00477863477973644
0.00433763902302379
0.00447396385707613
0.00444275105201293
0.00451089523645654
0.00490811145121776
0.00499521735953532
0.00500101692824745
0.00526738696954536
0.00456112500659642
0.00412974988226633
0.0044299228002673
0.00446142354969039
0.00433381214184647
0.00424387626237972
0.00485480346629076
0.0048204543560815
0.00425761711851891
0.00463918032031554
0.00460057583047751
0.00465306809259099
0.0048406739219072
0.00434784310097042
0.00419842403132349
0.00472532041627366
0.00487627318155496
0.00532057971663153
0.00536443866548464
0.00486028737786065
0.00435781725918158
0.0047486765522852
0.00494211940699255
0.00451198613945204
0.00449969976740353
0.00467549720836867
0.0047516239817527
0.00481517603647855
0.00437074144803481
0.00393780687548367
0.00411335115622737
0.00413057421553312
0.00404341289260195
0.00456495496311344
0.00489493388316116
0.00482750999157461
0.00453776101120791
0.00432995857206176
0.00375988209501563
0.0035606528222066
0.00404008654653056
0.00429445656953088
0.00391247462841281
0.00405793980571106
0.00462124777228384
0.00472332806467437
0.00453010054583572
0.00462005762267262
0.00455875791891653
0.00380238409083703
0.00358168508984954
0.00406753761002487
0.00464629724765143
0.0051407614578426
0.00482825469661648
0.00439964844805673
0.0044607823208373
0.00457901116286281
0.00421832721646109
0.00415245065618375
0.00451517121294408
0.00446230369447375
0.00420206760042561
0.00453985013191783
0.00440051633931738
0.00405373684454723
0.00392259360639295
0.00345854846832465
0.00381277585064168
0.0047066878331185
0.00470661801638396
0.00438858620941723
0.00422271706454488
0.00410474160467636
0.00398896588539935
0.00428504384719104
0.00467845547833997
0.00446809297124626
0.00422688360671874
0.00412960703136542
0.00409421343300087
0.00421738894516021
0.00420432999390036
0.00428956151098663
0.00439844309964632
0.00417085570461717
0.00432727723960222
0.0039630692430441
0.00371373920187981
0.00430931762713388
0.00456866762580669
0.00461109500520069
0.00408129232348718
0.00337306707429915
0.00347987499853849
0.00395846509847173
0.00414564206458567
0.00423614420175607
0.00423618698041707
0.00419724730266706
0.00396142342938929
0.00363082085032506
0.00325510056071535
0.0034136453781929
0.00378842254591803
0.00398849034105417
0.00386921552442396
0.00354532212292304
0.00319400290298897
0.00343170193995807
0.00385813741725639
0.00378864095924392
0.00364813302043676
0.00362685252726966
0.00386296869006026
0.00397788392640706
0.00376026331964839
0.00392458267894209
0.00384759819326374
0.00353302450982992
0.00353908630913346
0.00375816157783127
0.00373739363166292
0.00360043425022567
0.00391737101632149
0.00389974346197875
0.00364341330386774
0.00367651302343771
0.00358846065926783
0.00335473975036679
0.00324054066275031
0.00316686696677377
0.00322644402578847
0.00356889391707636
0.00394867869260528
0.00396947991318254
0.00382252492133823
0.00345146822087334
0.0035162350718237
0.0039142724078243
0.00369000111217816
0.00348924849895113
0.00359375436707203
0.00355412563127267
0.00344947949072703
0.00345823528774003
0.00358494202665884
0.00357690406714718
0.00348678392192176
0.00369288411634469
0.00414545310808232
0.00447290606853345
0.00449377678610245
0.00411130648348037
0.00384601672690862
0.00385894267780385
0.00406421103035854
0.00413402693651601
0.00437719361457495
0.00480198744398852
0.00480656749149725
0.00473072151044577
0.00498247951629434
0.00552416771200023
0.00597454030573581
0.00619271908753861
0.00664170551434977
0.00736565378213137
0.00753842715641136
0.00809505161325462
0.00937122254060082
0.0101743624679618
0.0112676495405629
0.0129043589957925
0.0146719978024916
0.0168813200843767
0.0198259159596691
0.0236116617299804
0.0277119519184135
0.0320990395725417
0.0369422093506542
0.0415224117198297
0.0447266579918335
0.0471650382140734
0.0502979338838153
0.0545576752502168
0.0593686800942678
0.0635905665938936
0.0651512136921857
0.0628676327307877
0.0579802272981464
0.0517470773179514
0.0455857422384202
0.0410391500169944
0.038621977516722
0.038248534686244
0.039668953451666
0.0426072264996594
0.046833656314281
0.0513490265424749
0.0556445000047305
0.0602051887097768
0.0649561635805701
0.0695076791374814
0.0739622282944563
0.0771771517052039
0.0780459773948331
0.0771545150135081
0.0753596672140836
0.0736207808915078
0.0720420883504845
0.069934735440822
0.0670399296747085
0.063712209921163
0.0601741160434638
0.0566283653794138
0.0536033018237901
0.0511230890870508
0.0489809446322066
0.0473138675030664
0.0460918937936456
0.0452041157289809
0.045046641149568
0.0456008000066629
0.0463282746841259
0.0472511229778916
0.048424185022765
0.0493769439655369
0.0498757863652281
0.0501917529835954
0.050941795130922
0.0526269548563598
0.0539984069788715
0.0528747613449362
0.0490036591014607
0.0436480317072179
0.0383671175396115
0.0338320879334699
0.0303208045446285
0.0281816204019723
0.0273005273017762
0.0273870419363096
0.0283943495906343
0.0305839787711622
0.0343212517260911
0.0388472663866228
0.0436786293371559
0.0483526827761502
0.050808724532279
0.049813241352479
0.0462338657147978
0.0412768046022253
0.0358125380750849
0.0312468258573756
0.027973663121328
0.0252508406245342
0.0230197319895793
0.0211486732709371
0.0195654049685523
0.018518553545491
0.0177374592644092
0.0170314249634892
0.0164029515192818
0.0157234007074409
0.0151593392489385
0.0144289954709278
0.0136781572734463
0.0131119898725518
0.012635252936676
0.0122804689300448
0.0116712005525733
0.011091102950344
0.0110808176109439
0.0109125295868456
0.0103086530886612
0.00974616934721951
0.00954666241950819
0.00946177526220443
0.00918655062118523
0.00882553197330064
0.00865065277136197
0.00845917457742125
0.00816969627193591
0.00802835715290564
0.00790227608705844
0.00784430253865545
0.00792002125330833
0.00783983590574652
0.00771829414800597
0.00762624913803864
0.00747108701991395
0.00704783620906279
0.0069242238000914
0.00731548465309786
0.00732382276715035
0.00694884008675779
0.00697075213680241
0.00708470064726314
0.0070731688799558
0.00711507694307894
0.00727466551766349
0.00721353224725474
0.00707717490787068
0.0073930293899524
0.00747372965115341
0.00743752711542265
0.00776738310347128
0.00799331903211642
0.00825962432643182
0.00863491305617782
0.00869165190830364
0.00838883514765667
0.0081295959600075
0.00808401072862815
0.00778244017392859
0.00757852693930207
0.00735165311279869
0.0073881130982035
0.00737118314623563
0.00706103043685644
0.00699075033915189
0.00685642614409589
0.00659227545063578
0.00649303319142424
0.00644331341097431
0.00649474591499116
0.00649955447592359
0.00630671068101613
0.0061766422902798
0.00628323680937343
0.00642890818478339
0.00643066541818996
0.00640596815324664
0.00656122785123859
0.00641476134139397
0.00644872644904359
0.00666160339229426
0.00661677805397963
0.0065175556617314
0.00634007632873874
0.00618580146898367
0.00627224156888294
0.00636643605980924
0.00640028959178726
0.00663277463289485
0.00682206276792649
0.00683839515081249
0.00659186387180304
0.00641985970897782
0.00641993992292164
0.00642378274400821
0.00635251865392866
0.00620041950064831
0.00617212620838885
0.00623340977512032
0.006204419206292
0.00591799494513188
0.00584551266752462
0.00599569488857809
0.00618736415251997
0.00641839548616752
0.0062390165644951
0.00589103354382077
0.00608222318200944
0.00640314312320061
0.00627388372045945
0.00585836269333122
0.00610953206297898
0.00617500491936115
0.00591068521601442
0.00606711735932722
0.00604417906274486
0.00556448329795278
0.00535991953822614
0.00566884935865285
0.00610310829957295
0.00647342159982339
0.00655430623280588
0.00604454495476496
0.00563587760589954
0.00535594417742599
0.00560065865019183
0.00625523428982895
0.00608188448770064
0.00548446015198386
0.0055090166709676
0.00627477507556724
0.00640830096574156
0.00628150938532681
0.00619451809081924
0.00579452028116635
0.00518677460015144
0.00524127584640161
0.00580079007870378
0.00546795884016266
0.00509053798690025
0.00512667990665584
0.00521922806923818
0.00549384828162906
0.00533311590104074
0.00504182311690196
0.00521481129192093
0.00515660495525625
0.00517239152999288
0.00545390069236224
0.00539454349017161
0.00535619466964195
0.00497705106025108
0.00468365426489058
0.0046782646379891
0.00437897159114105
0.00435672366694243
0.00458779349216089
0.00478426750054145
0.00509682459572031
0.00470449059698683
0.00448899123235081
0.00485475334963938
0.0046353730927985
0.00425865088717963
0.00416428746635368
0.00441975411284122
0.00490455045517749
0.00488225578177083
0.00474567330149652
0.00482348638827054
0.00432592108343315
0.00435101244415566
0.00470936779204325
0.00471083835278847
0.00509918891488326
0.00496755877480428
0.00424526858794768
0.00403732224529843
0.00410127871282675
0.00399909983819137
0.00453730504020059
0.00523929526465491
0.00513460540648533
0.00485795861030382
0.00422337123318352
0.00419799851335614
0.00469255839171101
0.00455331430254566
0.0043882986142729
0.00421062819681108
0.00415089477424963
0.00421769988727527
0.00401542209509443
0.00393675241938865
0.00419902021239488
0.00448793637918807
0.00448287640581676
0.00415447404487342
0.00432048170607777
0.00453295072288084
0.00457558940795712
0.00458783781265385
0.00471596596928044
0.00458692654540116
0.00464646308763433
0.00482133959328966
0.00478226486527716
0.00467090103084862
0.00461282513505369
0.00461298986575476
0.00492516909677234
0.0050528751714633
0.00457514738811484
0.00437583278205789
0.00421817044399087
0.00438602245867879
0.00473467889918223
0.00499058146227409
0.00493068594489407
0.00475446743481628
0.00475274515746752
0.00472336321138875
0.00435613236675696
0.00406081796152321
0.0042611594079005
0.00445295171235384
0.00447508558889151
0.00422140181644659
0.00411129810771915
0.00395704200559433
0.00441979172494874
0.00482344516901126
0.00471286495568663
0.00454413718609535
0.00450210072368292
0.00416628514851509
0.00419193684958467
0.0043265936219105
0.00469642865145627
0.00487074351273387
0.00483607682202635
0.00486423974067589
0.00487283356052984
0.00459431603452872
0.00414138950438088
0.00397839832605194
0.00455728958748487
0.00515777869385204
0.00485728792947934
0.00438138454390201
0.00446125362621134
0.0045477535003981
0.00452482214744853
0.00447249278420767
0.00449843069931694
0.00443113436459511
0.00462152594084704
0.00469769646310729
0.00441071356055244
0.00428472706939135
0.00445909339006289
0.00478497019581188
0.00465144560309427
0.00434216787382949
0.00435850232595498
0.00467484296677229
0.00500871624264431
0.00503234232906587
0.0049354706745137
0.00496191462331998
0.0049671924035964
0.00510231560627148
0.00540875589728922
0.00503602608313128
0.00447292624407153
0.00460909807141955
0.00490872178493524
0.00462511683749268
0.00427371551240483
0.00433977694566503
0.00448457558476175
0.00481478053323091
0.00488092538140909
0.00458336979342377
0.00427153294382505
0.00453714219078517
0.00486906945038498
0.00502466119533371
0.00483706033615686
0.00479484011035069
0.00522939560395077
0.0052602374359927
0.00473143848115891
0.0046110876598813
0.00414542149270986
0.00440992332342528
0.0044650844667221
0.00449497440437209
0.00497424682803581
0.00493842033235116
0.00437020395064674
0.00385245079371506
0.00434558628245906
0.00457640149442955
0.00458976286306437
0.00473387547756817
0.00486175690371005
0.00494508583101212
0.00495001785272442
0.00425928118612263
0.0036925545709125
0.00478481815177458
0.00463646900536033
0.00399224422018003
0.00470626161015019
0.00478834478997919
0.00477800125059715
0.00414791056979346
0.00349997259863008
0.00367206616345765
0.00477679595584527
0.00423134480736893
0.00389420596284507
0.00440855391613242
0.00419833490830791
0.00385274405565718
0.00422205769459284
0.00449929660463143
0.00456129304213153
0.00354045275397833
0.0036731523182097
0.00444005491703217
0.00419482726034411
0.0045715920424752
0.00420821358339279
0.00308808016355636
0.00407203206981161
0.0052033186017076
0.00472820159883445
0.004508814610035
0.00546033120514435
0.00543079496517313
0.00351071568010654
0.00353786635217517
0.00503752113283065
0.00440661122405247
0.00339237055315571
0.00230654577320592
0.00201540836857316
0.00352351095753906
0.00406311280715775
0.00398188354656624
0.00479713692778137
0.00304046093700837
0.00304464660560733
0.00638552112021933
0.00593878766559977
0.00501596920807068
0.00553874484196583
0.0041765175978551
0.000965262912014383
-0.000122010306408354
0.00198425571318759
0.00299556796721037
0.00264856258461446
0.00235868332397974
0.00370102500400225
0.00398042295584871
0.00271902220594278
0.00322244226889792
0.00352769267347972
0.0031592520934165
0.0040971048322263
0.00463357415296755
0.00316833553876445
0.00264703890121643
0.00385850659140768
0.00399690356974421
0.00374218984803214
0.00441173316586558
0.00394462068090308
0.00386904946207859
0.00452732465330751
0.00483520086836841
0.00493444319885398
0.00478427254607406
0.00469430650221894
0.00417550229936712
0.00366861478414016
0.00429652415202958
0.00412701347433613
0.00329081224574796
0.00380385341367856
0.00430513945442904
0.00390162221441924
0.00361104829336738
0.00359755890017553
0.00352846577484876
0.0039535904858618
0.00466441449222505
0.00515628265289098
0.00473038610388253
0.00415112094224704
0.00362662468015038
0.00368012220345852
0.00439635612212844
0.00476672541357875
0.00464098875151982
0.00493783815572427
0.00517908996468073
0.00482383609550395
0.00435118735984853
0.00446083198764023
0.00538926219703762
0.00491008216711403
0.00329827951952538
0.00351198234221725
0.00429934049007769
0.00553534716625593
0.00574485879871759
0.0047023622157917
0.00530111797955676
0.00593372439197569
0.00518032222659737
0.00293418867892619
0.00193980481258987
0.00371366720783687
0.00411480109561475
0.00356271479772156
0.00349485031019559
0.00402340379809443
0.00545486098380852
0.00461912771690816
0.00313052269383017
0.00329653651142855
0.0042196817461436
0.00456795265652827
0.00427437688936169
0.00262490963972848
0.00170110916493228
0.00350637893568761
0.00568181568586603
0.00573885285861934
0.00403084954177467
0.00363028657981033
0.00459595349863788
0.00529660369546917
0.00411172714054403
0.00311330474796771
0.00432762469778796
0.00463035587348934
0.00425850802576243
0.00517492032391756
0.00545294079404346
0.00454582820918557
0.00323450021479746
0.00272988757192648
0.00273517300803747
0.00258139655768442
0.00224142799829209
0.00260994595513754
0.00271779914214985
0.00310600355324825
0.00348090529650404
0.00279671646137277
0.00264284233236469
0.00275269698298688
0.00335517110319638
0.00499575298267175
0.00452987658111458
0.00374187191358778
0.00478551486585337
0.00599532595964546
0.00668759865011443
0.00586174608614918
0.00500236510710679
0.0045332312630629
0.00412600831939617
0.00424667720836192
0.00393492754000218
0.00437245562212686
0.00430969876539802
0.00363141920348846
0.00400699781714124
0.00548241455844997
0.00580809061117388
0.00483840612503309
0.00424465490626286
0.00375209636477975
0.00365018805467033
0.00435421171342565
0.00465614423968271
0.00460442741207953
0.0045085158914799
0.00444389473321582
0.00463721610228836
0.00464255700781148
0.00462159763870895
0.00498245945333678
0.00486349718036125
0.00457800844251344
0.00491385186049569
0.0053173746152644
0.00529989159253837
0.0051034786212561
0.00490678351410126
0.00486674372762602
0.0047156312174649
0.00445104512196872
0.00412797877055405
0.00430135801126132
0.00506847234103164
0.00534663641216105
0.00505363605045111
0.00515277009955155
0.00515949440610956
0.00490177497790012
0.00468772360066549
0.00472469923665991
0.00476167932425996
0.00499881297637598
0.00517048522005684
0.00505751735832573
0.0049815067898778
0.00512125617160029
0.00521495845201153
0.00513353649207435
0.00514784746248944
0.00508390670635429
0.00508070290420883
0.00499111886904582
0.0047004985974097
0.00495874870902528
0.00516339899979962
0.00507142429263532
0.00516515696269933
0.00494120255516251
0.0046679819924041
0.00478914035004112
0.00508206410324469
0.00485471306840671
0.00472324437126941
0.005093882116951
0.00518818647885881
0.00498762664612211
0.00486295680398361
0.00486170253486214
0.00499285635665562
0.00517419943769083
0.0051272963334878
0.00498660590422948
0.00507365655037871
0.00534702445045274
0.00550888495887806
0.00546598885792765
0.00545774592547905
0.00542245986229824
0.00523051096717776
0.00520531517038072
0.00536175483504229
0.00541073769471945
0.00558410069829462
0.00552301866818288
0.0055792704423222
0.0053831005040362
0.005274067426135
0.00529069198761628
0.00519116567361273
0.00546875335454676
0.00558893309699461
0.00545394059012616
0.00559676138807159
0.00565110592545114
0.00571634354560161
0.00604367186080648
0.00588418226585017
0.00577072824635337
0.00590394541228952
0.00580728135147085
0.00573012652334585
0.00584182849491774
0.00609545229392072
0.00619699259861548
0.00640177347038667
0.00630057213184225
0.00576643371640882
0.00588909857319486
0.00609680465051313
0.00609546629713121
0.00600560866572799
0.00609029250585773
0.00635605161844109
0.00710713070764963
0.00744721971433095
0.00702988519745593
0.0064507038879904
0.0063881701318013
0.00673364975144104
0.0068426820800255
0.00683821392132238
0.00681110464367075
0.00709665886208089
0.00760637221038738
0.00704833157261326
0.00707744736669112
0.00685953117329355
0.00668605372159525
0.00672887549515507
0.00672056570043158
0.00683897795611237
0.00780816541521704
0.00797917573428274
0.00727852169486554
0.00710996506150764
0.00712201138277539
0.0074764438284277
0.00749107393719154
0.00745448284334501
0.00757572208883505
0.0078138880512071
0.00785266080748562
0.00757368144812725
0.00739404201101127
0.0075480908003742
0.00779818300037035
0.00772137610226061
0.00760198975466181
0.0083949601961699
0.00819045326692823
0.00772096817549233
0.00782605359341232
0.0081214338781835
0.00811899509799177
0.00794972812541127
0.00776444465016558
0.00787622633359585
0.00844503137521594
0.00865391229827818
0.0082540799417365
0.00794179585608504
0.00794875777789545
0.00774448712012156
0.00737472201597254
0.00760222943528809
0.00773289920185604
0.00765521111789513
0.00797571178059206
0.00814951076068441
0.00757737922500412
0.00746418171310541
0.00765873009122047
0.00763938213743567
0.0074125272676714
0.00728123905140714
0.00716679247717114
0.0071742407570975
0.00735644608093865
0.00735349172980033
0.00706619272805458
0.00706577352989133
0.00728364385130129
0.00731657770949516
0.00717122418438168
0.00718676276672816
0.00720427718085261
0.00706149960552364
0.00703206552309975
0.00722280583034536
0.00769574412335917
0.00741569494401965
0.00697651648467268
0.00713617538043055
0.00758350669426664
0.00755708305360473
0.00752464890635797
0.00742293772915245
0.00739329614599993
0.00800383119662848
0.00823072765197622
0.00741335871839938
0.00718090528749443
0.00706543017850723
0.00733712860585706
0.00748906001557834
0.00745735492176859
0.00761171979262881
0.00756257431833251
0.00782737075313362
0.00830259398672655
0.00774253814743294
0.00730598257541531
0.00780823543730342
0.00796082915667914
0.00776317912859031
0.00763108698009492
0.0077889048942291
0.00778551042623406
0.00774220626570283
0.00768118997640114
0.00735777071815583
0.00750555055414876
0.00752958768629659
0.00743344727350124
0.00737248615483881
0.00734613945755002
0.007691619633871
0.0080090462330659
0.00747164923342621
0.00731619235499361
0.00757399411565017
0.00787304851426398
0.00811521744882692
0.00777976717448598
0.00776262804622176
0.00842275616951072
0.00870470382431488
0.00872777183758912
0.00894050868742632
0.00926437760250052
0.00978243161181994
0.0102947174696212
0.0109319009530528
0.0118105967696445
0.0130201265819588
0.0152093593994078
0.0185729701299655
0.0226892835367999
0.0270613423320027
0.0320343803189347
0.0374767239251538
0.0420880598239109
0.0451792374906635
0.0459839836323956
0.045659505936921
0.046655397528278
0.047155865649845
0.0467819414848753
0.0442477176239518
0.038935004805944
0.0339504821373219
0.0299536804092364
0.0271176133033191
0.0262559679330403
0.0265565586521672
0.0255243869018383
0.0231993085280659
0.0202779446394249
0.0177545481311092
0.0157273399006037
0.0144227231758488
0.0134986454136835
0.0128694688545292
0.0129921405033947
0.0127709999208949
0.0118598112064881
0.0112073073799709
0.0110686078690577
0.0111469480903491
0.0109857074883114
0.0109385376464085
0.0108899347798145
0.0106018455123798
0.0104565023546877
0.010771499574086
0.0107850410513148
0.0107280113154904
0.0106796637535628
0.0106129120293356
0.0105496193886848
0.0106244356026883
0.0113435196693029
0.0135359280310824
0.018412089869095
0.0274205090928412
0.0413275363294729
0.0574666515460027
0.0674386081398996
0.0643932762667939
0.0539277114027749
0.0431427314780624
0.0340025694845851
0.0281313158048171
0.0256458704072544
0.0251208992911409
0.0254703890424968
0.0261532329831377
0.0259507754687586
0.0239970444461705
0.021282575322936
0.0191007916864116
0.0175443700400672
0.0161971531057095
0.0150361886380726
0.0142646883692491
0.0137295986158697
0.0132416501338768
0.0127773889662646
0.0124640563239349
0.0124896962198252
0.0126165860766876
0.0127991061450201
0.0130364812454937
0.0129136881665607
0.0125711934684116
0.0122378954421951
0.0117876363238076
0.011489672727628
0.0113025359748349
0.0110186697572264
0.0109089087178977
0.0107973916859058
0.0106945699653801
0.0108620345819145
0.0113474741215779
0.0119247197710344
0.0120450692643746
0.0119450530089242
0.0119888006609078
0.0120308260387326
0.0120375165663594
0.0119109847778047
0.0116690823953076
0.0113697620179135
0.0109551019069315
0.0105491553545532
0.0102989132169381
0.0101713889097616
0.0101404279359253
0.00999872585937416
0.00991892831559039
0.00994425782243363
0.00978072721643621
0.00968555889481986
0.00972536673921474
0.00964716288805364
0.00965249013057284
0.00980882361783447
0.0099712415253008
0.0102965360146297
0.0108687770817288
0.0113756240666435
0.0114379532293264
0.0112422623459647
0.0109870889468128
0.0105463635588988
0.010262677963454
0.0101872118261545
0.0101299786374183
0.0101217551337777
0.0101298026132364
0.0100035920466526
0.00988297327967928
0.00996918417710062
0.0100594050553689
0.0100234047608551
0.0100156646547928
0.010032955016104
0.0101522306554237
0.0103551936165485
0.0107078141968114
0.0109760009158156
0.0109891901580126
0.0107907718328557
0.0105704244668299
0.0104091675265841
0.010362435272793
0.0102994985190926
0.0101553923494476
0.01017571192441
0.0103692906945144
0.010392620513751
0.0103796666173001
0.0103755405369451
0.0103657549287558
0.0104280929245296
0.0105253840940304
0.0106164784834121
0.0107093288239103
0.0107422480922127
0.0108543408817805
0.011003482039061
0.0111840544232842
0.0116179231716301
0.0121704704163925
0.0131216583415157
0.0146974606710494
0.0167600266938239
0.0186867744598838
0.0197236257732969
0.0197849766222859
0.0193519900384977
0.0188081675121269
0.018445888200673
0.0182759037200274
0.0182438685116444
0.0183298988110606
0.0182516171956668
0.0179741033900574
0.0175679778600573
0.0170081070206614
0.0164358918614499
0.0160814449389
0.0157424553720725
0.0153707785369298
0.015231304378486
0.0151742121203938
0.0152957177657098
0.0155506865257028
0.0157039102327105
0.0160607763891276
0.0165985944447476
0.0169123839921254
0.0172203410029218
0.0176101069391647
0.0180515002356422
0.0185834451507702
0.0191146514899006
0.0196609057235031
0.0202090540952518
0.0208472311637582
0.0216290838349985
0.0223487482212148
0.0230436275494136
0.0235287375211098
0.023661988535578
0.0237156620053324
0.0235685046545469
0.0234598612895622
0.0235652121714801
0.0237671541695841
0.0239984731105489
0.0241090619004214
0.0242981553029136
0.0246118311433742
0.0249165972225787
0.0252467105478646
0.0254450723236559
0.025487067157941
0.025710876418184
0.026039934205995
0.026305939374916
0.0266229309588899
0.026938107259236
0.0271984967455584
0.0273322046567939
0.0276711685552242
0.028056205830596
0.0281942745690875
0.0283884218092255
0.0289043946661572
0.0294303407998792
0.0299338526158885
0.0306223554194908
0.0311845981380647
0.0315964021806662
0.0321391982343996
0.0327050056743047
0.0332193084190803
0.0336703250850396
0.0340509255006453
0.0343653506694643
0.0346277725979653
0.034647261538027
0.0344838819494299
0.0344424723768142
0.0344004045251123
0.0342079201524939
0.0340572226239655
0.0340326036077726
0.0340569160652201
0.0341088794198235
0.0340759356689395
0.0339951074707099
0.0340935499610912
0.0341235301645145
0.0343003425216838
0.0349315733638778
0.0361026709102323
0.0379798826233734
0.0386955743278241
0.0370988071195738
0.0344094111941204
0.032198649789907
0.0304039792784644
0.0287895964983705
0.0276342943349269
0.0270753035595768
0.0267294184049822
0.0268215309820099
0.0282427174550175
0.0307360736943042
0.033305334766088
0.0344305062364515
0.033200248672109
0.0301850201228566
0.0268511196181521
0.0244092142267734
0.022788487715371
0.0215676223051134
0.0205285014541934
0.019811254857831
0.0193549182976548
0.0187937763171379
0.01846278838561
0.0182954132063065
0.0181377905406595
0.0180712872787469
0.0178195117606468
0.0177269978428725
0.0179588303897962
0.0181391305950813
0.017966836575742
0.017398888882991
0.0168847389840283
0.0166990464884378
0.0164037436600541
0.016050263117594
0.0159831841084348
0.0158963522426523
0.0160064590215543
0.016174251405678
0.0160705722358583
0.0159834096691104
0.0160566182056755
0.0161205951770528
0.0160368489189622
0.0158133843678267
0.0157576067961863
0.0160503132944353
0.0166875935233965
0.0179251878087803
0.019076059771466
0.0195763717305127
0.0188129067868319
0.017096271318964
0.0157842990605147
0.0151973939195939
0.0148859153523978
0.0145041775503891
0.0143910995775515
0.0142704633604551
0.0139385608574869
0.0135910284261773
0.0136014777435071
0.013749019790312
0.0136947474905567
0.0133678077990652
0.0129963058007828
0.0130722546955851
0.0131221996734774
0.0131486755801309
0.0130714967987847
0.0129325682278049
0.0125993585411007
0.0125588594659921
0.0128222208196405
0.0131938906523411
0.0134423778609831
0.0135162561312138
0.0137682501712288
0.0144364961254791
0.0160491903537208
0.0188455447046143
0.0204317919750431
0.0189332857661942
0.0166735396647351
0.0152325027522
0.0148172328047965
0.0149808660998028
0.0143610612149783
0.0137398335420974
0.0139440666949261
0.0144634899693215
0.0141963998943127
0.0134460329214909
0.01398503875153
0.0150677554440623
0.0156661512853294
0.0168107732927581
0.0180153515655989
0.0185443260998779
0.018400022895484
0.0176578406377819
0.0167460147326548
0.0161158484325142
0.0158668048155994
0.0155325469699108
0.0154278258376397
0.0152894744087594
0.0147919330006169
0.0143367199392154
0.01414685751751
0.0137463095188981
0.0131194462686383
0.0133892862502093
0.0136214127169038
0.0133121386922344
0.0131928582142884
0.012921340402511
0.0125063521779261
0.0126292480577771
0.0128322604703849
0.0128431622540862
0.0125890289979445
0.0126786861458818
0.0134463593956975
0.0138618935566178
0.013492880810849
0.0130150585048449
0.012700239896649
0.0123992922409741
0.0123029775412967
0.0125271500104312
0.0129409732916029
0.0131946492850735
0.012753903567955
0.0120798230596234
0.0121689892161441
0.0124703045008096
0.0119878436867096
0.0112021423537413
0.0111854116205883
0.012641069739099
0.0138654482069236
0.0139012944339877
0.0130807700604837
0.0118871394331081
0.0120857386563477
0.0124690755954457
0.0120987036209949
0.0124174607558681
0.0134758298495015
0.0138352791031143
0.0128052475734091
0.0124406494736105
0.01307424419275
0.0136302779590906
0.0139256648413828
0.0140335068101859
0.0138539686140347
0.012972692681433
0.0140646747454986
0.0160550039246599
0.015126118857344
0.0137665363662029
0.0139668834411172
0.014454896820179
0.0145686572551159
0.013827711528429
0.0128489444227541
0.0127728446107867
0.0134060758917946
0.014536689257825
0.0155031720808134
0.0133173773274635
0.00886284617045563
0.00835849539147027
0.0124985215148731
0.0158672530254486
0.0161983803431245
0.0156270722816562
0.016289781915768
0.0171990813765185
0.0159811665995954
0.0147537689509833
0.016599796400538
