1798
3999.43349933624
650.420452594757
1
2
4
0.013051318553159
0.0132493229355572
0.0132909166369183
0.0129014284439998
0.0128107947565945
0.0127703961135055
0.0129346815440465
0.0130873002318708
0.0128128404291511
0.0126745955906236
0.0124502895901462
0.0124019239189478
0.0130770817476803
0.0132175639974124
0.0130685425979413
0.012881307631695
0.0125938909232192
0.0125814405509204
0.0127021074728828
0.0123703724622924
0.0124502140158979
0.0130261470674923
0.0128898463065531
0.0123961656589916
0.0127924340900224
0.0127930852300043
0.0122840169367026
0.0128831471102328
0.0136076029339146
0.0130705387696
0.0120577238622327
0.0121388932838359
0.0124775364820169
0.0126751361119291
0.0133455118724815
0.0133648626426604
0.0128321054374472
0.0126342661047492
0.0127444632577523
0.0129714152554265
0.0128631810724563
0.0127249877550282
0.0122873380609063
0.0119332133411695
0.0117405123040262
0.0118324070895323
0.0123622603000847
0.0127558694035005
0.0127673021496874
0.0127877290147812
0.0131502352781476
0.0130142423278215
0.0126681271142873
0.0119533440754789
0.011357630886598
0.0116936964737515
0.0127349670567277
0.0131242336191513
0.0123015817552151
0.0123278052970496
0.0127532447843321
0.0124916056100493
0.012417151645854
0.0127047602940863
0.0127676894932457
0.0128895053287897
0.0124852843369246
0.012164489378182
0.0120345305994094
0.0112068806558421
0.0114711632330222
0.0125092378807723
0.0119286467854431
0.0109100171461465
0.0113400817133063
0.0118736361022483
0.0122024879875998
0.012654508375911
0.0122516238217588
0.0117139957132776
0.0116530142551263
0.0117096059246766
0.0120337176828242
0.012372451279721
0.0122730062882888
0.0120844508586137
0.0121187536147296
0.0119874987937212
0.0117178093950044
0.011741667017078
0.0123311968640318
0.0123123566327643
0.0116378556170354
0.0120033162132665
0.0123640584560291
0.0114256526906332
0.0111919148940914
0.0119179374065699
0.0125417695230606
0.0121887422139543
0.0118176749280927
0.0125140585489834
0.0123929930375577
0.0111371671899143
0.0114549092286999
0.0119950112003133
0.0115504205353217
0.0113861960844102
0.011303913670182
0.0114378904078292
0.0117796882988621
0.0114877851442337
0.0114355581334275
0.0121742474878063
0.0124320897964174
0.0116833451520036
0.0118210118893059
0.0121474497376426
0.0121178139191494
0.0118766483399381
0.0119090850636177
0.0120173547375859
0.011919755781539
0.0116371802752841
0.0116268226710407
0.0114205392852148
0.0115888888641496
0.0118011481480156
0.0115002087078858
0.0115505022267312
0.0114599911124468
0.0116747557343478
0.0120119043500896
0.0113769364944042
0.0106133932561665
0.0108949021099944
0.0108300659356728
0.0103626879679959
0.0108689989984461
0.0111975534601885
0.0114178502388702
0.0115963582989479
0.010611289007496
0.0101171771117805
0.0106459100868544
0.0107453442733215
0.0100524632646789
0.0103473356494646
0.011259704139126
0.0112131443128022
0.0114066432205724
0.0117952132098872
0.011371169864995
0.0106961903395245
0.0107120940381623
0.0109679978498537
0.0112651156947871
0.0115850246784666
0.0120465330905303
0.0124902353807304
0.0127519310428589
0.0130245838518231
0.0129789163782525
0.0128988034003018
0.0137040535279197
0.0141231802234673
0.0132389708986341
0.0121097471219319
0.011420410258423
0.0119895363744688
0.0128308891721113
0.0128571956040559
0.0131774258502728
0.0130081810071595
0.0124767512097916
0.0123620548567664
0.0120360223360235
0.012035230382844
0.0128036616251516
0.0130571432189287
0.0132552013179716
0.0138737040809717
0.0143885814550171
0.0145585658162738
0.0151061419137388
0.0154811279690424
0.0158876455645312
0.0155264715373071
0.0149873960729763
0.0142988688016831
0.015028215613724
0.0161097770642966
0.0160659650971394
0.0161326262899617
0.0168306857124171
0.0171747323314501
0.017312303335464
0.0180572742093326
0.0175662695750834
0.0167457095662408
0.0167388613520387
0.0174792864099408
0.0181882770271507
0.0187599066395563
0.018926140820906
0.0183475444756411
0.0185630872169165
0.018738393946331
0.0184775426829758
0.0181521694211487
0.0186729272149879
0.0183156480884317
0.0172489826372923
0.0173437926313773
0.0182184301039399
0.0185043564097687
0.0184167321560222
0.0182958783436957
0.0187988813714628
0.0188617788711464
0.0180207450414963
0.0172474175247989
0.0169117215235093
0.0172478815719625
0.0176645372459073
0.0184140034314333
0.0190626113841886
0.0186836608801507
0.0188126552852398
0.0185118124588018
0.0175745702622326
0.0169825467177982
0.0166501748522792
0.01717008080476
0.0172315381994901
0.0168596372795476
0.0172439608421461
0.0173394556671296
0.0172866202763646
0.0178767218303778
0.0179960068088352
0.0187168441062833
0.0191098101350621
0.0179918524628339
0.0187469773728319
0.019202046151013
0.0181730040645627
0.0178135305451005
0.0177151829256689
0.0165031757571762
0.0171720145114744
0.0183005744070489
0.0184123390565852
0.0188714468190179
0.0187376293188344
0.0181683062156831
0.0168526432957648
0.0168476086164373
0.0179052198227914
0.0183377677778067
0.0179441670047955
0.0171953191368176
0.0168828965462157
0.0181069636678284
0.0193861670341642
0.0189766313145643
0.0179313928909749
0.0172293472256383
0.0177992970094739
0.0194773694322123
0.0202409356136863
0.0195865507287355
0.0192313310148844
0.0194049699446136
0.0195355003537166
0.0191017452897995
0.0190653737475945
0.0207671155397691
0.0206486286490415
0.0193933333981684
0.0188081772313724
0.018760883628794
0.0197266123909756
0.0200172986582374
0.0199335427572825
0.0199184280827585
0.0200971737090845
0.0204371943858321
0.0202112024530469
0.0196587092846233
0.0201206475069074
0.0207760831036983
0.0208796385809234
0.0209880168185899
0.0209644129651821
0.0204033775499034
0.0206340988755335
0.0211349331169381
0.0210733719961708
0.02159742559943
0.0218437296854801
0.0213252989192959
0.0216103518247797
0.0222996413436216
0.0227291208008834
0.0224545367134911
0.02211952860985
0.0225738247538022
0.022722183788961
0.0224074232305866
0.0224356311269214
0.0222787725895639
0.0223124711717441
0.0226450036389194
0.0232906490167254
0.0237384125638477
0.0234519551985074
0.0232210101244203
0.022849003299848
0.0229052929026225
0.0232510538395935
0.0233525890239817
0.0231667910983324
0.0228217432709336
0.0228457163449696
0.0230922492529153
0.0239566870209801
0.0240130526999867
0.023448670819975
0.0231462351824368
0.0238869044838491
0.0249887066515409
0.0245224658996053
0.0232691710885476
0.0231681088342918
0.023968849399369
0.0240447392478273
0.0238012181652899
0.0240506800392979
0.0238115300311091
0.0235016634389456
0.0239295397058867
0.0248059934450069
0.0241652462948522
0.0240464638710515
0.0249420561156637
0.0244330058900063
0.023082465622548
0.0231103975666775
0.0242947594743648
0.0247264960518212
0.0245980592545896
0.0243928051547863
0.024340669296218
0.0245687492823795
0.0246717004553295
0.0247165656255375
0.0247472276559702
0.0248802320595898
0.0249579864676236
0.0248970296564868
0.0248821953765978
0.0243948926445041
0.0243854279854749
0.0245976752856539
0.0247167240841449
0.0249192090123295
0.0250837858128478
0.0252303971163392
0.0253507815778418
0.0254985687047455
0.0253196733080628
0.0254446721774658
0.0252149099883056
0.0247966013003355
0.0247209472177718
0.0247492413035416
0.0252784139910612
0.0258853009414948
0.025893715764406
0.0254356572405839
0.0251858197318961
0.025189480364632
0.0253564594818516
0.0253701784100291
0.0249872301486861
0.0250197919300052
0.0253683057178577
0.0256357926588554
0.0250805601387245
0.0245817015180497
0.0250906117494764
0.0254471133799534
0.0248323612910089
0.0247121354718934
0.0254020146147296
0.0255149619742445
0.0252375985435609
0.0249662070806299
0.025020982988788
0.0256721184069581
0.0258827351870432
0.0251662091734078
0.0249725554950378
0.0250954796148226
0.0251129882596253
0.0251010788714378
0.0252277346895835
0.0254115820248292
0.0252013313941688
0.0249351426909831
0.0250343330661207
0.0256250441048644
0.025938168119965
0.0256799631481848
0.0253104123690632
0.0248401612687585
0.0244121167170172
0.0244893320950817
0.0246249852459995
0.0248188866811081
0.0252488574865916
0.0253353487044603
0.0247048794780454
0.0242082169454767
0.0245137662604083
0.0250628253500489
0.0248719813884952
0.0245894026628295
0.0247965172290371
0.0249603731177083
0.0251136590369953
0.0247231246557945
0.0240474928573842
0.024218864868182
0.0246148510560958
0.0243874799094164
0.0242003985490318
0.0240893516941113
0.0240026939317966
0.024430474830355
0.0250242082037456
0.0252615550295455
0.0248553233034113
0.0240569027878434
0.0239266163520738
0.0243679994331051
0.0244441232700265
0.0243204910430209
0.0240548124967873
0.0238453552448875
0.0241169341573296
0.0242532263509316
0.0238232846642586
0.0235860675977138
0.0239533999934745
0.0242829247760506
0.023854070230237
0.023592806243713
0.0242785899617147
0.0245608903305199
0.0240532169825136
0.0236586681451929
0.0235957572843602
0.0232432670273231
0.0230470313048258
0.0231790830716817
0.0232333789220638
0.0233695718942184
0.0231310856814089
0.0229837825693319
0.0231362234549743
0.0233046004177329
0.0234876058324166
0.0232665220846194
0.0230576643043078
0.0229742132868265
0.0228937352471995
0.0229916867434438
0.0235189938372403
0.0237247603711879
0.0232976681344872
0.0234097412339287
0.0236614953585761
0.0230763643779113
0.0224156830391061
0.022509665257216
0.0229922392377428
0.0233054077336393
0.0231157469679768
0.023012752491172
0.0231248947588391
0.023053670599097
0.0230263075925526
0.0229409050843469
0.0227253485046954
0.0227059964150172
0.0228577494964983
0.0230574474981982
0.0229961956546049
0.0226824176164646
0.0226095033980856
0.0226214569172125
0.0225513870908125
0.022610761850276
0.0225341961078551
0.0222912267545046
0.0222149533654341
0.0223093298565354
0.0226332315361854
0.0227603488329996
0.0222768612632621
0.0219515859538863
0.0221180542762156
0.022212479487503
0.0217919495878398
0.0213066190227412
0.021550998069816
0.0219176136122251
0.0218762445682746
0.021398937695612
0.0213145657311571
0.0218943554765403
0.0220154387487678
0.0219375615784615
0.0217154271747892
0.0214779639431881
0.0216073344542138
0.0216418702532567
0.0217359972625917
0.0217421644270446
0.0215106551861755
0.0215191521974511
0.0218631550055521
0.0219716585105924
0.0217496612436747
0.0215549445764753
0.0213488258653618
0.0213222642342056
0.0214137563438344
0.0213524820172871
0.02125389067788
0.0209690827756886
0.0210157238845399
0.0213346520968911
0.021484357389684
0.0217349733379475
0.0217256787609813
0.0216672433159156
0.0218345550237193
0.0215272753827208
0.0210750111736081
0.0210238935266984
0.0210437437020139
0.0211712910332682
0.0212533159291229
0.0214953403807077
0.0215101163286716
0.0212620285100231
0.021240839129684
0.0211578718937342
0.0210831684609786
0.0214603894792585
0.021590292879624
0.0209916233474068
0.0206524120153942
0.0206707768426894
0.021188292928286
0.0215995463187437
0.0215245722215044
0.0215798059964233
0.021374255076734
0.0213718502960114
0.0215480026427527
0.0214901663727119
0.0212155543695697
0.0212830441869452
0.0215075992954818
0.0212327331748061
0.0209472614058146
0.0212114278517475
0.0215593646642321
0.0211780039235755
0.0208010570044843
0.0209472476410779
0.0207976354151691
0.0208020410455214
0.0211060215628022
0.0211439055570383
0.0208603675274884
0.020564798539653
0.0205640243837324
0.0209185431251727
0.0209345913502314
0.0207812999203064
0.0208549187479627
0.0208547445746286
0.0210370042488217
0.0210187607191387
0.0206978758634903
0.0203721524561838
0.0202440134283766
0.0203455441286604
0.020453802748081
0.0204622660392177
0.0201095044948711
0.0201830349534252
0.0207659291322222
0.020878758921668
0.0204547029088347
0.0197721394075002
0.0196762314854514
0.0204178359159427
0.0207314884868731
0.0204868590765181
0.0203524534270213
0.0204663850859845
0.0201158579658639
0.0199455515308273
0.0201998895626209
0.0202226556605566
0.0199360220136307
0.0199153005815232
0.0199861334287076
0.0199758498426618
0.0198827667699841
0.0199265268166912
0.0200983156002787
0.0200101048902844
0.0199376776767183
0.0199090219384038
0.0196957798158071
0.0196080991734529
0.0196505304902151
0.0194666849673222
0.0193188841445752
0.0194926671968728
0.020002526903389
0.020310863906304
0.0198057649414813
0.0193319168641741
0.0193894080564144
0.0194397636162543
0.0193633972344024
0.0193454522829917
0.0193102713307815
0.0191955987217092
0.0191445228830359
0.0190960587008406
0.0193031545909955
0.0194638322088704
0.0193179212068928
0.0190436715895366
0.0191010575796905
0.019355479755255
0.0191945689354616
0.0190345570796412
0.0191370455416306
0.0192598989328703
0.0191221380956804
0.0188301507581648
0.0187082237046447
0.0188270766000366
0.0190384059778161
0.0190185103544338
0.0188222145427341
0.0189229637887209
0.0193812768918971
0.0193436159419992
0.0190137285041435
0.0187889811839367
0.0185431131141336
0.0186911190261356
0.0189386846406545
0.0187182773637661
0.0186938651823775
0.0189146682521981
0.0189409917909312
0.0189103953553611
0.0187355247750732
0.0183871366598092
0.0184660347063314
0.0188116964005401
0.0189473233481675
0.0188889940416589
0.0186039450472418
0.0181879189048096
0.0183337798073113
0.0185870039332824
0.0185349109555239
0.0184122021718903
0.0184868658071305
0.0185187765038411
0.0183607687449791
0.0184551690234724
0.0187102052574386
0.018862556761484
0.0186123540734148
0.0183383695149784
0.0183031035782574
0.0183447943349657
0.0185086609232185
0.0184598474572575
0.0184618084547348
0.0184310911309762
0.0183594754692765
0.0184136162931326
0.0183077985573263
0.018259494714274
0.0181670997271612
0.0181888730413768
0.0183555425654053
0.0184830950541647
0.0181805388231601
0.0179890037118899
0.0182573471627666
0.0182456240882836
0.018074571072442
0.0181725227273654
0.0183162117924768
0.0184858925256361
0.0186084097735494
0.0185413777382982
0.0184284828880621
0.0182684691935696
0.0182817493923538
0.018343135594758
0.0183119302779356
0.018226635627177
0.0179800955940615
0.0179436155364079
0.0178783059100967
0.0180935835293347
0.0182893083484551
0.018230022230187
0.0179850582153778
0.0177412004614587
0.0177475439128475
0.0177240065362971
0.0175146698869412
0.017436097992545
0.0176446795653279
0.0178696900979614
0.0179380725175115
0.0176122377739545
0.0171963091848954
0.0175556210902101
0.0175743796588386
0.0169442117687781
0.0166707043961879
0.0169851752683599
0.0170522194701427
0.0170921426759811
0.0169095290054168
0.0162382915612599
0.0161590148570355
0.0165590674156268
0.016400323340747
0.0164277859877475
0.0167256024387605
0.0170072691746143
0.0170769931410249
0.0170193884668774
0.0168446925311242
0.0163647761712497
0.0158478627327618
0.0161246837317264
0.0161807241686991
0.0161927756354052
0.016446739571789
0.0166060755028963
0.0165060603222239
0.016368152689864
0.0163354647118706
0.0162184193697978
0.0160641227411938
0.0160295232125568
0.0159357993039983
0.0158786061039055
0.0158684678864341
0.016034729795753
0.0163735827760062
0.0164280961215538
0.0163917636948136
0.0161242251511612
0.0154790084148835
0.0154805163529406
0.0160660570353102
0.0161096927191636
0.0160505770678135
0.0161184732717555
0.0161030428340217
0.0162048212173432
0.0159604858632588
0.0157508744044144
0.0158878917660312
0.0155809331399498
0.0151057009135634
0.0153219689983466
0.0159602746042695
0.0159324096728873
0.0160556229843347
0.0163115110011296
0.0161292409793609
0.0159897307456457
0.0156568571140284
0.0155539519327395
0.0152764597141442
0.0149963273622934
0.0151082020243094
0.0155116792078813
0.015679964987213
0.0157016283476592
0.0155913136850917
0.0158960921044399
0.0161075899184616
0.0159780229364933
0.0155652352494023
0.0154393327076044
0.0157097243804135
0.0157192550429281
0.0158636610630367
0.0157391936165426
0.0153163086422568
0.0150971639307064
0.015112410562772
0.0148727394010024
0.0150566223669775
0.0158094685584135
0.0155767254808756
0.0154888829477121
0.0157590487793452
0.0152494900767453
0.0152849549754665
0.0156161054097047
0.0155613366261679
0.0154182551845492
0.0153542220622405
0.0150812839749167
0.0148611540498771
0.0150151935800746
0.0149219566505408
0.0150143222027972
0.01534325219792
0.0155321607097079
0.0154881439326757
0.0154780321376213
0.015492218987413
0.0153524552664147
0.0149927961538091
0.0148862379649914
0.0153275278501998
0.0158207650428764
0.0157523350840867
0.0154387272286754
0.0148001401497012
0.0145217061473151
0.0146002164654418
0.0146215603200938
0.0146581310505295
0.0147264544802144
0.014802200238497
0.0146888600933978
0.0148433948510789
0.0150190819318493
0.015280474849477
0.0152244762438684
0.0147781083885977
0.0147772362989447
0.0150029035826818
0.0149346536724465
0.0149508433251292
0.0150113367668742
0.0150925943143418
0.0147668279020768
0.0143447391024122
0.0141957269449536
0.0146112014356032
0.0146003070707987
0.0147957294689503
0.0152122425656043
0.0148810463792386
0.01465165106556
0.0146873762576339
0.0151122609678796
0.0153815601593402
0.0153842720997045
0.0151626446039652
0.0153632513953383
0.015680183029554
0.0155707168842162
0.0151991040812171
0.0149247378107285
0.0148896690224198
0.0150589268288646
0.0151846163277189
0.0149586060169499
0.0153082221330676
0.0161129039721291
0.0165616862516265
0.0161100293800826
0.0155520898684819
0.0156412664880834
0.0155191539840969
0.0155290427735784
0.0158831247404515
0.0158223639874969
0.0152791468636368
0.0149781550306199
0.0148895421967687
0.0150694009291849
0.0151491514845269
0.0145184532835925
0.0145787184939183
0.0152322507259995
0.0147308454328631
0.0142590908882822
0.0145774421686531
0.0154814946536109
0.0158170063614804
0.015359808553352
0.0145221496232279
0.013750173835107
0.0134798336147067
0.0137359463690791
0.0141866426611527
0.0143794882348649
0.0144126859729453
0.0143072476303726
0.014046560906562
0.0129230958206245
0.0123767095367956
0.0120446867766923
0.0119506118391756
0.0115046741457812
0.0110033971911891
0.01134961690654
0.0123275780755083
0.0124641543318717
0.0118194532881282
0.0119846173635097
0.0125166966512302
0.0127421170396017
0.0116457596444523
0.0105540305048116
0.0102574360910107
0.00978072915237896
0.0105102339858623
0.0118639531404978
0.0116336036783427
0.0107987559934094
0.0111751650705422
0.0114495557764143
0.0112712963643461
0.0109999132047935
0.0101492935969193
0.00809278182260884
0.0076228688766263
0.00904758404219502
0.0105509765502928
0.010362573575802
0.00971512779385214
0.008816045928612
0.00843733215309105
0.00812238526835571
0.00801945367075479
0.00832924565584269
0.00862243806739531
0.00941021499539702
0.0107916121961956
0.0100497843307614
0.00807546931113316
0.00798478616615754
0.0082282178993036
0.00877932048764702
0.00766152463201586
0.00570868140482364
0.00621147665011805
0.00756636542849829
0.00725556260677113
0.00564527629709412
0.00602860377479948
0.00693149322379304
0.00688627721003055
0.00701576008530069
0.00748681330088867
0.00742062590470274
0.00540576192894504
0.00175152622460427
0.000260610113314631
0.00244868236026757
0.0050965513713229
0.00538360657345359
0.00556880722546653
0.00636135840181966
0.00715592005513178
0.0075934656629761
0.00735206841424195
0.0076448692963307
0.00742194903251593
0.00722019687922973
0.00735597983913607
0.00821287370524155
0.00958480242529595
0.0104517135862915
0.0104367492167408
0.0108455053665518
0.0106324778768467
0.0104817606030118
0.0108992557732707
0.0110429231202093
0.0107711657964577
0.0107810740800445
0.0110520735903251
0.0108421219809931
0.0113464231460154
0.0116636122941557
0.0112583852214891
0.0109320820237831
0.0110865570959827
0.0109310524415432
0.0104059541273613
0.00991689172475931
0.0101711593522898
0.0105390733316822
0.0106379313113949
0.0112172597424159
0.0112046847763681
0.0103605977395907
0.0100093536480101
0.0103936385940041
0.0103695357405758
0.0100665450902585
0.00986347185972452
0.010065378379562
0.0101864414204969
0.00876992630068136
0.0077428574937532
0.0085709691001634
0.0094068921490346
0.00935109337411285
0.00922256316381034
0.00983932932412245
0.00934987695093871
0.0078970002295196
0.00812214667413858
0.00856462129143313
0.0081392888384289
0.00702076013360774
0.0045111019688488
0.00410907189921917
0.00557380169059411
0.0070240568147584
0.00772112315648746
0.00682663217604954
0.00550210258550405
0.00400673306570385
0.0038473384248019
0.00588086317367694
0.00697967383382104
0.00640947846982594
0.00596833317782831
0.00628503822549347
0.00575016874156766
0.00557810679206904
0.00533113811819923
0.00502509082377764
0.00438343270666446
0.00479003903178698
0.00632005540544589
0.00696501141066278
0.00729385807928852
0.00720823651499216
0.00736693234453012
0.00813373654190503
0.00698525726666905
0.00544952998706078
0.00664571179176032
0.00781220962935256
0.00657469662867071
0.0059205419946255
0.00675541489658608
0.00645090774989407
0.00591964147263008
0.00536746494529805
0.00526565611006089
0.00758885516963863
0.00861676984142244
0.00708262861350131
0.00663536262976126
0.00743843477939988
0.00703800962072189
0.00659019593357392
0.00761283511483138
0.00836373399112613
0.0077049052093051
0.00802520626790493
0.00911568976654372
0.00914445159035702
0.00924283513815717
0.00972377326061168
0.00927472216098868
0.00862214162718636
0.00925777718442608
0.0098717461829313
0.00980940999282297
0.00987646339090567
0.00973912686555142
0.00895521615904088
0.00837942889371076
0.0088135872487639
0.00963632411375178
0.0105063581496258
0.0108823838127901
0.0105383146275924
0.00993277190178398
0.0100184777276747
0.0110034390477671
0.0115729428224934
0.011099530560887
0.0108304231054766
0.0114561444936481
0.0116066091789553
0.0115271806530913
0.0116281581422843
0.0111540163300614
0.0110204648679444
0.0113236279047159
0.0115477183958322
0.0119469960717506
0.0119329002914974
0.0112731582958125
0.0109904844359252
0.0113786669256139
0.0118345036267094
0.0118321624359997
0.0115597375425784
0.0116096705074706
0.0120986989933795
0.0121540685403383
0.0115225619575153
0.0111373580555064
0.0114929664435126
0.0122045903897875
0.0121286225560588
0.0117241041327124
0.0116873458572146
0.0118165495354658
0.0121854374401746
0.0123466281906045
0.0120005310489135
0.0116768609190803
0.0117174130952335
0.0118024723119493
0.011689172033416
0.0115363855578834
0.0113780042459189
0.0114924864453095
0.0117122046611815
0.011668075950728
0.0117667704403883
0.0119644792773676
0.0116779780166889
0.0115743930787257
0.0118342901990393
0.0117096805376697
0.0116344975892829
0.0117108845499326
0.0117010479324645
0.0114815190101177
0.0112803514175568
0.011422038139988
0.0115662258233015
0.0117110983814747
0.0118187045968188
0.0118776189748345
0.0120517977317406
0.0120020483569338
0.0119107527421298
0.0121089768904002
0.0119090892431042
0.0117548970946378
0.0121359002930524
0.0122761250039258
0.0119494640180923
0.0117626805457519
0.0117947242788985
0.0118108101746869
0.0118541099647794
0.0118966063632326
0.0119711172972414
0.0119716986898462
0.0118977608496833
0.0119017728397661
0.012132252854267
0.0122311708270685
0.0121185569010813
0.0119775977780677
0.0119050256915956
0.0120890064985962
0.0120918671988972
0.0118232357316202
0.0118328745531186
0.0119976240460996
0.0121499494845616
0.0125009503609676
0.0126140398390721
0.0123728074823203
0.0123200335735978
0.0125719532260686
0.0128826786362602
0.0128893587152177
0.0127227745439661
0.0125885352410525
0.012905052310959
0.0133853555220009
0.0134774056228406
0.0135354045217272
0.013166228780176
0.0129273533479263
0.0132903497639534
0.013668501093016
0.013819419002557
0.0142002991842296
0.0144751093059761
0.0143791271247065
0.0146627572956544
0.0148308971257576
0.0147675107950385
0.0150949922547171
0.015489330303906
0.0157046879852801
0.0163009511287501
0.0169518769904527
0.017026984359573
0.0172697586666476
0.0172696934684714
0.0173779735454485
0.0180650031909624
0.0186462446427292
0.0194038446808428
0.020249945257978
0.0204727617362877
0.0203025747856444
0.0208210586292158
0.0216470643573134
0.0227771680488892
0.0237152959473173
0.02408770994737
0.0246086406623279
0.0250279200846469
0.0256453153744687
0.0265409027159714
0.0272243531433684
0.0279164183330812
0.0287274064566057
0.0294067130146508
0.0301885466875899
0.0309925096576047
0.0306961764511577
0.0305582054052086
0.0313750390664868
0.0318936069189942
0.0318780804518475
0.0317552118227673
0.0319281733997566
0.0322438209870361
0.0326907634430949
0.0326291635265946
0.0320305175001628
0.0318104840104467
0.0317641850492516
0.0318974615929246
0.031753958244003
0.0316871746834138
0.0314002272915423
0.0309189587690923
0.0313186667517099
0.0314241939257294
0.0308104816466434
0.0307450446934837
0.0307818928499149
0.0305077575586014
0.0302518690270769
0.0302100115051173
0.0300202283778437
0.0297470851865616
0.0297340626307348
0.0298373787402153
0.0297567821798048
0.0295030382830237
0.0295062361637125
0.0295979095769934
0.0296452123712582
0.0295689591857529
0.0294628736804696
0.0292577184188411
0.0292135229322693
0.0292541514642087
0.0295797733101177
0.0296029600782907
0.0288683666728206
0.0288913751183814
0.0292936979348249
0.029146411342
0.0291293582887571
0.0292153061038164
0.0291299953351792
0.0298488240764504
0.0301830484862389
0.0284016666141297
0.0283991404539985
0.0289289484218233
0.0289184825614912
0.0289986354916726
0.0288354278248282
0.028828562334248
0.0288824193592105
0.0288207291113018
0.0287084798754224
0.0276821422541376
0.0270342745812821
0.0273988502403979
0.0272719003802359
0.0268254101032786
0.0267784513766319
0.0267887896158582
0.0264910244838862
0.0260098564002037
0.0260488895452784
0.02563079448542
0.0253855732032588
0.0254210348647703
0.0251582711561331
0.0250726828433422
0.0248838071926767
0.0250960295554275
0.0252614979253204
0.0242518430179575
0.0236548722391009
0.0237904342496067
0.0240137626292757
0.0240787745686834
0.0236068970750366
0.0232013972575121
0.023466326999978
0.0237505076418376
0.0234585736762866
0.0229246376271818
0.0226131117947526
0.0227554164900379
0.0228972657441025
0.0228979976106458
0.0230089849034278
0.0231468881120336
0.0232479077944231
0.0230520011605082
0.0227003888859553
0.0230249861881507
0.0236290892792053
0.0237534778143958
0.0236233757541975
0.0238276885020999
0.0245157160976542
0.0249078079709759
0.0241795466641689
0.0241080899549126
0.0244558233045541
0.0248882628690964
0.0249077235122034
0.0247576069317639
0.0249880018197779
0.0251871744142759
0.0253738842016052
0.025684525640849
0.0256969664176669
0.0253284723623775
0.0255489979988391
0.0258691044365492
0.0259798246132046
0.0260304576080589
0.0262607173008421
0.026524272010346
0.0267161313140041
0.02691411611337
0.026469120158784
0.0264897358561152
0.026711024491457
0.0268773206968106
0.0271625003699658
0.0273390660952888
0.0274571766522098
0.0274161092804115
0.0274618436895381
0.0277545750861172
0.0278533888378702
0.0278245181843973
0.0278001637035555
0.0275874449626157
0.0276195437611273
0.0279175493192064
0.0280312105428968
0.0278095497692338
0.0276051727169655
0.0275930256764684
0.0277035011014217
0.0278355234045773
0.0279258008520198
0.0280008140853648
0.0277122381296826
0.0274379230157172
0.0274040207653451
0.0273041873080948
0.0273589719623774
0.0274660160639474
0.0270289372249872
0.0267958403180768
0.0268455388134121
0.026690784152181
0.0264720676826728
0.026375040227017
0.0263004820005013
0.0261793193455981
0.0260838728020507
0.0260128496463713
0.0259662280742259
0.0259964885039181
0.0258946496880651
0.0255688648241747
0.0255239192984768
0.0256965147647375
0.0257496741885075
0.0258368878773803
0.0260999186729843
0.0264765869799999
0.0268758599858445
0.027218200558334
0.0274009529664624
0.0273925586777865
0.0269469175308703
0.0264902638527014
0.0261716258010523
0.0257943408914814
0.0254411348170906
0.0251408597826215
0.0249390806718994
0.0247867748566534
0.024575008925878
0.0244961070342442
0.0244054147751592
0.0244548305473304
0.0245058209823405
0.0243860941203574
0.0241774859860961
0.0242672683708183
0.0244497944233082
0.0244673079060734
0.0245028881068285
0.024489534807907
0.0245453056774057
0.0246991684780388
0.0248258181721923
0.0249032274417849
0.0249767891801121
0.0250652569061546
0.0252096434628232
0.0253860358873813
0.0253763904106195
0.0253206666531778
0.025224206721649
0.0251867531725949
0.0252793499664632
0.0252765023460466
0.0252495184303852
0.0253271072773222
0.0254545651711573
0.0256417702572032
0.0258188892630882
0.0257956258998628
0.0257717547275402
0.025793942943427
0.0258291957669136
0.0258933608625783
0.0259611793627859
0.0260432598194102
0.0261225087187781
0.0262366781844075
0.0264227032405727
0.0266354331502967
0.0268294201605889
0.0271172292967781
0.0274255233146388
0.0277039656781145
0.0281345262814113
0.0286660729280215
0.0294092926264596
0.0300818822191291
0.0306913578101337
0.0315191206316521
0.0323492425625305
0.0331781194982455
0.0340710604225496
0.0348682180731077
0.0355853049954114
0.0363243362469407
0.0372405819300102
0.0382259795190556
0.0392367937779772
0.040281502571294
0.041243229367105
0.0422309710361345
0.0433666245071744
0.0445616440765236
0.0458557048679794
0.0473035976890927
0.0488291266153572
0.0504125608548694
0.0520904249198553
0.0540784486650198
0.0561144921717225
0.057909956828024
0.059424890595561
0.0603025024529345
0.0601483616983143
0.0594144595870942
0.0590436919002412
0.0594681721550056
0.0607142590565917
0.0623522955595856
0.0638941559546425
0.0653330531663532
0.0668964621904768
0.0684443217654927
0.0698841542580389
0.071215180142115
0.072614831929637
0.0740735420674021
0.0755567471932802
0.0771101765026283
0.0787463022828212
0.0803287423400447
0.0817997023930532
0.0832741102349988
0.084867910890203
0.0865333945481936
0.0882119799120211
0.0898726681124733
0.0915674052604928
0.0930998956767654
0.0945328984989404
0.0958899279999516
0.0971564856291024
0.098564764980596
0.100134116101355
0.101581956120228
0.102777472487091
0.103957467182539
0.105198346056757
0.106539160851947
0.10783250347597
0.108839555720201
0.110055658315707
0.111096691211717
0.111935579280173
0.11285815100958
0.113804141929839
0.114643977597666
0.11562397438501
0.116782275564212
0.118160025481015
0.119704191583817
0.121650568277011
0.124099432867505
0.126778067088017
0.129949605389838
0.133717531117273
0.137481718932703
0.141108197002129
0.14475065361946
0.148561648306544
0.152460498948129
0.156329438729771
0.16037396949915
0.164760595453583
0.169056046482753
0.173473324195574
0.178047245226994
0.182544598070836
0.18699393762371
0.191548955438565
0.195989118535905
0.200132429976021
0.203873765159285
0.207218367009919
0.210215372645185
0.212683176595858
0.214574751864071
0.216464164626941
0.218251667475722
0.219953672686082
0.22180109587639
0.223785085772941
0.225723375020346
0.227564299703456
0.229407363041627
0.23123511912087
0.232960642722022
0.234297611657366
0.235282826188253
0.236007862745745
0.236306002941912
0.236473423420318
0.236314408079029
0.236019492213605
0.235573857679701
0.234954036818763
0.233984834172395
0.232903894268539
0.231453994102189
0.229805696447233
0.227938213781445
0.225846688742527
0.223374028072875
0.220601122756454
0.217651578491203
0.214491285479755
0.210952457863856
0.207204580253437
0.203647666605997
0.200121430036004
0.196621801547748
0.193135313092237
0.189611134556926
0.186359106822813
0.183100710423443
0.18008052796465
0.177287570139545
0.174639244380634
0.172319406681506
0.170270000103692
0.168335099175593
0.166525744154885
0.165025185979016
0.16375729122042
0.1624152206639
0.161161010271125
0.159781952927361
0.158376120597138
0.156959532032846
0.155749117303315
0.154969899848256
0.154263755497898
0.153625081811518
0.153128691412074
0.152858682303604
0.153135194046773
0.1533027471847
0.152913774927101
0.151856785896232
0.150020380891247
0.147403427388985
0.144552386947176
0.141541555327049
0.138319308786086
0.135214655788203
0.132602444828381
0.129991418773037
0.127334088711246
0.125156443088422
0.123326529703864
0.12157727629278
0.119822291913375
0.118275580364192
0.117260270125058
0.116344457029818
0.115300665306248
0.114042281919658
0.112630278470702
0.11104572714932
0.109114441737745
0.107123591163922
0.104850883294215
0.102248248019884
0.0998109882443139
0.0976831888153922
0.0953791219776711
0.0929967438065699
0.090864857210829
0.0887403574104054
0.0868211924110589
0.0849720629257883
0.0830681735958757
0.081409027156337
0.0802226407036861
0.0794140826918837
0.0785571910687498
0.0775190494004733
0.0773449058873665
0.0775807583491391
0.0770449568568684
0.0764607093696514
0.0759824828035661
0.0749767767971284
0.0741573807563376
0.0736007813797826
0.0730505685279074
0.072725733867596
0.0718101246666292
0.0707894424247815
0.0710125486091393
0.0724311290309316
0.0742825665042925
0.0768097425203634
0.0810375398849274
0.0876814464071882
0.0952133174210267
0.102831905188284
0.108613641892832
0.110983962201376
0.111727702552129
0.111819920603727
0.111645736592087
0.111493000221715
0.111506968062772
0.111982383174593
0.113212605512096
0.115457247706937
0.118602038502166
0.121523433865344
0.123271689686452
0.123199594308233
0.121515527586547
0.119359769420807
0.117555549445739
0.116783828383909
0.115676760661164
0.114153167068943
0.113547118742321
0.113207497550456
0.112283266017664
0.111179790976283
0.110796967580939
0.1104039734965
0.108911050237008
0.107156849364363
0.10585728741238
0.105414794918207
0.105426917019922
0.104412967253405
0.102763307519525
0.100877050213541
0.0995832014524752
0.0988289942490392
0.0979738512485397
0.097479393133895
0.0968753513294861
0.0959900762702086
0.0953240428365383
0.0952655931509846
0.0952755352794706
0.0937514201438567
0.0920020047396286
0.0914360300344751
0.0915931602886318
0.0913441425236748
0.0907847943650181
0.0909463455269929
0.0912189540958016
0.0913534004475901
0.0918380197410983
0.092762272871994
0.0963387330230423
0.10197072623503
0.106691871804679
0.108411164242506
0.108147446147683
0.107168867385625
0.10313708131734
0.0988044081259205
0.098490427391016
0.0990299578510819
0.0983495924763252
0.0986888671852807
0.0981726777129481
0.0959234849683015
0.0942351862969511
0.0948494130219926
0.0964330007706026
0.093961719625791
0.0910130294698078
0.0908935137589487
0.0909278035257711
0.0910771828778828
0.0928619293657117
0.0947849974494569
0.09674591266446
0.0958357292966439
0.0942317682360264
