1798
3999.43349933624
650.420452594757
1
2
4
0.00347636429066807
0.00339602758142875
0.00398231850833754
0.00431250473745228
0.00344129956252468
0.00295282991779674
0.00332381732986959
0.00389456370693672
0.00421361558032553
0.00475294806950867
0.00443478943749987
0.00365067993417753
0.00378322176715674
0.00418856055303743
0.00405012034243835
0.00381201487743123
0.00392767397350586
0.00398812125125615
0.00397088117976801
0.00444858279918459
0.00431435943384985
0.0036545063403047
0.00365174756533979
0.00360238187056431
0.00332156559501927
0.00393167805578284
0.00412836610746258
0.00368883916971096
0.00359562343196196
0.00377133009979227
0.0039563811458858
0.00357250807350207
0.00346469085117774
0.00376093536228434
0.0035453121028711
0.00352064444745344
0.00406489498215171
0.00404832809459974
0.00354802058157638
0.00316519023702832
0.00328843955051985
0.00330709762146122
0.00364367512009134
0.00387039695538662
0.00379400401927771
0.00401455387232438
0.00415028308366282
0.00387716502002535
0.00317140087936012
0.00344908631659109
0.00381039301275811
0.00381575039349432
0.00352314078093738
0.00328734939247526
0.00389049948606517
0.00404581081242384
0.00356477675196333
0.00354591029727066
0.00379032255866097
0.0039174492633525
0.00412676521005209
0.00438309715683102
0.00375324543780787
0.00317986752393766
0.00346886877353247
0.00364719490268364
0.00362110408110028
0.00385788994919172
0.00355162764691245
0.00322113291622351
0.00300362936280418
0.00341932324637647
0.0040250146453692
0.00389575215225756
0.00325284359050388
0.00354874051408204
0.00378539868671189
0.00339956055267234
0.00329089970970472
0.00362043813792498
0.00328299055145341
0.00318614941214565
0.00341695990654785
0.00380815169159367
0.00349717588806735
0.00291477499890012
0.00345061099764026
0.00381467520356305
0.00340244802303041
0.00341825062798027
0.00331385676987649
0.00393542208659252
0.00443747524169183
0.00397073545720068
0.00330582370760989
0.00308169467859976
0.00310268056660911
0.00273018727404549
0.00288361539576719
0.00350859301334008
0.00363747335369018
0.00346647811125333
0.00324554576835545
0.00310814125097798
0.00281309363274099
0.00313036612483318
0.00340595465195321
0.00381342779218489
0.00382601607427391
0.00338049641623002
0.00353247312454038
0.00364956482110702
0.00354576615514812
0.00351215743277444
0.00354869686950049
0.0037895521579952
0.00390867825141606
0.00398203331392589
0.00368950929861522
0.00329572133058322
0.00311800544301092
0.00300410817628101
0.00295776018390958
0.00345340609074424
0.0039389068322712
0.00375182273142186
0.00337197421003483
0.00310390230571527
0.00293406429015414
0.00333901071039277
0.00334548877130377
0.00337249343309706
0.00303338132547057
0.00289934491242691
0.00258588958180096
0.00242109857868157
0.00345531968543253
0.00344272232867891
0.00336373664309825
0.00376975109370054
0.00373833459315719
0.00314827459886651
0.00225962505370193
0.00271829939928216
0.00284316611768343
0.00318734502217922
0.00401588847483605
0.0038700313732175
0.00343411642300574
0.00341143655338949
0.00346652984005647
0.00327111392878026
0.00267609086797804
0.00283894709369847
0.00393284178203666
0.00479798976041022
0.00495467821690044
0.00419308093483321
0.00437647140319015
0.00438524479888474
0.00405126563350612
0.00384228803248073
0.00390311693356806
0.00438971217252759
0.00436485449896923
0.00427061689559288
0.00473907753627362
0.00497478567320043
0.00483513625544139
0.00463681253420549
0.00456554415193626
0.00418009191981089
0.00428098493365208
0.00489789360442235
0.00498109911593493
0.00445191232280126
0.00450843536676045
0.00559538904959983
0.00612628477306698
0.00525850867571217
0.00499822432324239
0.00580547862773355
0.00590716333063237
0.00584450614203275
0.00602058493910117
0.0058367161354876
0.00508871035769692
0.00545642228219168
0.00741030619793935
0.00708324816247539
0.00631592809976103
0.00736844485784843
0.00777687852546167
0.00781748497803264
0.00841133201597178
0.00878013356585388
0.00870436430299953
0.00880471169850624
0.00902022473129164
0.00878280934479786
0.00938468256018151
0.0105374889967817
0.0104843106460981
0.0100062004663114
0.010833938750272
0.0117810624814828
0.0116991847411114
0.0110207237056101
0.0112601077910457
0.0110551905400961
0.0105597923346396
0.011407654633813
0.0125626325227578
0.0126378738155957
0.0120337651289366
0.0118197578490363
0.0120151911259215
0.012236442140271
0.0128564238968774
0.0130932235144281
0.0125254814735991
0.0130214237752716
0.0135723369291358
0.0127701060140014
0.0126828323672925
0.0138246243519048
0.0140633940503571
0.0137766780954354
0.0143358455036918
0.0136804193713321
0.0130720142157203
0.0133512434538802
0.0148447529097697
0.0156158888230419
0.0157363749832783
0.0148418217227248
0.0144306621291087
0.0147590215906123
0.0150509475729218
0.015091528155754
0.0144007161138692
0.0141022213104083
0.0145938780454816
0.0155005211973363
0.0156375327341522
0.0160636265423048
0.0165007978962658
0.0168155546534768
0.0170411909063615
0.0167581328324096
0.0159710691576329
0.0162435761400954
0.0166175190384743
0.0175781707757854
0.0174783986424014
0.0171500841473225
0.0180950593733961
0.0186173994231394
0.0176208623710078
0.0170928690603421
0.0177617785643973
0.0188941529178614
0.0188818174589803
0.0187619843804121
0.0185373227338002
0.0186268186103304
0.0190744637601475
0.0200531100379155
0.0204920612799445
0.0202870269135926
0.0196823501538106
0.0203022170127911
0.0212290942142037
0.0203772004726393
0.0194061189431235
0.0204285805761519
0.0215837126980382
0.0213732214776139
0.0210390896926292
0.020655401706302
0.0198536234918512
0.0207375585943558
0.0219138846288064
0.0218636500814522
0.0216731615697836
0.021938310699357
0.0223354472606843
0.0220766683616524
0.0218884339054252
0.0213892546479389
0.0219288682270843
0.0225647725372809
0.0218688755139216
0.0208497236934754
0.0210453347366377
0.0218746587693434
0.0226255952947848
0.0220189597263771
0.0210653553073256
0.0212915218319726
0.0216142635171553
0.0222994206126098
0.0229570655349551
0.0221734358571059
0.0218726127453044
0.0224560902572353
0.0222735340571503
0.0221742623294117
0.0222063976551263
0.0225520632717516
0.02290892992944
0.0232163041419896
0.0230518830267808
0.0219653219036822
0.0217169714600669
0.0222421398628733
0.0221332139112549
0.0223683004703061
0.0224921293790863
0.0228533264489425
0.0228889865548994
0.0223790761755125
0.0223132867281254
0.0222287510344842
0.0219301077460026
0.0227403014667524
0.0232180282654213
0.0224565078947094
0.0225148404183091
0.023073251466824
0.0233248935119901
0.0232038156776615
0.0228171857728181
0.0226247052615824
0.0233143913420365
0.0234183193096639
0.0232712120318277
0.0234523508429527
0.0236981136174122
0.0235263162342122
0.0232036145976899
0.0232965545510674
0.0235032764686989
0.0230143026709566
0.0230472544970409
0.0239003623986715
0.0240577160670863
0.0239996468882247
0.0242842909620017
0.0244902453560315
0.024301714049085
0.0237227439795678
0.023628021806005
0.0241411369286392
0.0241843949259988
0.024363894340886
0.0243641595585989
0.0235495512147263
0.0238073115155776
0.0245453352918051
0.0245275943807819
0.0239827272731875
0.023722199879873
0.0239138407327694
0.0243086187450417
0.0247037900471674
0.024587869338236
0.0245892968831294
0.0242895068745943
0.024440465865935
0.025351465065163
0.025269361817237
0.0241125311663296
0.023823720126148
0.0243827085059142
0.0244058334245539
0.0241943090453769
0.0244996005210576
0.0248349155778585
0.0247800629642736
0.0247263645133368
0.0246318130572009
0.0242454091153566
0.0241119202278745
0.0238764757254616
0.0242803666364179
0.0251093261053276
0.0248076942920847
0.0242678099223046
0.0244153673039952
0.024535889372244
0.0241699395527117
0.0240248185629203
0.024121169986126
0.0240814924954432
0.0242187514239084
0.0245968354206728
0.0242617954135402
0.0238107161955988
0.0230555401236511
0.0232857816711529
0.0244039880969012
0.0249309613246549
0.0249661799049801
0.0244589474797474
0.0235714467868686
0.0233449769681351
0.0235334415698837
0.0237428202057956
0.0238221808122471
0.0233837431752305
0.0232169610035809
0.0233072116338143
0.0229444138837538
0.022804221189742
0.0233709141570692
0.0233649011934642
0.0231773051306792
0.0232063751846787
0.0227335009519662
0.0222794324135616
0.0220786859444582
0.0223140368701207
0.0228589730767695
0.0225693728929072
0.0220850972229003
0.022261677131466
0.0223468033804733
0.0217878201793817
0.0213598944136825
0.0218953535279706
0.0221805364548999
0.0217798721133535
0.0214785375075278
0.0215168409756544
0.0215727079009492
0.021165931669437
0.0203875281162907
0.020386096588701
0.0207874474122457
0.0208027855915817
0.0208551689350192
0.0208930842652479
0.0209000461471512
0.0210615293563069
0.0210175554321032
0.020533917055653
0.0199213055388039
0.0196382469154334
0.0198513770005565
0.0200295967157498
0.0194319388521247
0.0192692447783279
0.0196745776205912
0.0197750618941094
0.0196513419017691
0.0194279063093547
0.0190770704169969
0.0188724396818465
0.0186463531925199
0.0185892199888203
0.0187694385756983
0.0186780026638601
0.0189346990060109
0.0193151753451569
0.01880332946671
0.0181944353820853
0.0184924484977457
0.0185990287219792
0.0179295037127837
0.0177992875554542
0.0179548914683387
0.017839871716572
0.0178704843748297
0.0180525289345676
0.0179389070559722
0.0177296489570027
0.0177615133960017
0.0177594790262653
0.0176369909708736
0.0173813626812906
0.0171358784797834
0.0172552216660714
0.0174456122962006
0.0171840690243865
0.0167846796051881
0.0165906299707728
0.0167125747255436
0.0167081847513439
0.0164835619686728
0.0167276289207991
0.0170242759752323
0.0170146282847592
0.0168021652794235
0.0166133514876331
0.0163490355136243
0.0159091574564131
0.0156215589604659
0.0153713468266269
0.0150929292715968
0.0154473258328953
0.0159664436581918
0.0158828313372157
0.0158586327490864
0.0158775722614678
0.0155988007525289
0.0151671139118025
0.0150299603579116
0.0150810047138285
0.0145114132103711
0.0143626310600455
0.0147132779753562
0.0143821425840136
0.0139143486174889
0.0137996744114028
0.013719837639027
0.0137848254371131
0.0139075086430896
0.0137868745418689
0.0136590504342767
0.0137224480002997
0.0136938622249871
0.0136843183788615
0.013586999025952
0.0135564690870217
0.0136558758069874
0.0133571866318744
0.0129349430457065
0.0128499684828844
0.013060442194272
0.0132281121819776
0.0129055347284426
0.0126130503224059
0.012725063248594
0.0128143907825924
0.0127057316541109
0.012466668889534
0.0124127185929424
0.0125143352802699
0.0122692695507857
0.0118811833068506
0.0119780463905785
0.0124910605646853
0.0124707292531758
0.0117883214874465
0.0114885342221025
0.0118143737877487
0.0119639163661549
0.0120157836423184
0.0120657590630553
0.0121378239981935
0.0123665039638902
0.0125928066116316
0.0126742758387382
0.0123255596603413
0.0119650284794399
0.0120219189958548
0.0124311160223648
0.012696397343026
0.0123524230752754
0.0119032917549561
0.011694516649929
0.0119567619341411
0.0122435823263016
0.0120009229501271
0.011800050644796
0.0117780950656546
0.0117993401310887
0.0120579841672988
0.0123014626740156
0.0123068320922367
0.0122955022696052
0.0122030661415148
0.0119077944032416
0.0117995655135643
0.0120514517954213
0.0123326990464175
0.0122944867979746
0.0120431165153736
0.0117330377543501
0.011766665107564
0.0120425516951157
0.0119312905271844
0.0116597529552752
0.0115830296611964
0.0113399792032359
0.0111591900037531
0.0112915819398866
0.011180207012784
0.0110767900340372
0.0111100592505706
0.0107647612350728
0.0105524251329106
0.0107396006628571
0.0108812783865689
0.0109078322536818
0.0108410590639868
0.0105645115510959
0.0104771720115821
0.0105360557830943
0.0104509727560795
0.0105084298172125
0.010853981520575
0.010779126221467
0.0104165408150326
0.0101566948620793
0.00993771643087618
0.00996103479085782
0.0105746080206704
0.0107334020971199
0.0102976424952262
0.0103507455640836
0.0103274324915693
0.0100062362067475
0.00979900848553422
0.00964700415137243
0.00989191341556283
0.0101975026537324
0.0100147195441322
0.00976722657859976
0.00968994448714006
0.00964984009649415
0.00944312891865654
0.00943513172215513
0.00972419448282433
0.00984373289144358
0.00985665194613783
0.00956794138444662
0.00943609430988091
0.0096291073018054
0.00961926284365312
0.00940860530503732
0.00936791179076681
0.00939738322055146
0.00930271398149908
0.00938633802070127
0.00948028617929722
0.00948066812076771
0.00937095461131036
0.0091047710362555
0.0089570459865037
0.00902855975112449
0.00905399043194025
0.00907566655891469
0.00915994803881359
0.00901578143371541
0.00916080078581185
0.00925530883620905
0.00916530372185106
0.00921313733234567
0.00906143296644879
0.00907726678294391
0.00903657548948904
0.00890745675016669
0.0090073439492859
0.00876018397361505
0.00872002949780074
0.00892194227948742
0.00863560221572842
0.00847303976251058
0.00878909473054885
0.00894906795839841
0.00875146690473751
0.00851810215333178
0.00854554508128325
0.00868753766055775
0.0085754884721422
0.00851568056284679
0.00857670866263169
0.00866709195499396
0.00868099742684706
0.00864779224923458
0.00871486673672787
0.00852846305977122
0.00830237465914468
0.0082919354125463
0.00836998237792119
0.00824377683240748
0.00820700856727699
0.00820909183719369
0.00828006764547236
0.00807189331143434
0.00817594543018682
0.00839718090765082
0.00828608174254141
0.00815197603399137
0.00813061282486761
0.00817971213849074
0.00825144973341703
0.00810641834817029
0.00812412758484071
0.00823853524306982
0.00813532258317721
0.00801452679045113
0.00793739016867016
0.00777688323037813
0.00774915695041408
0.00799945398863587
0.00795465320480459
0.00795207666066824
0.00814295270219116
0.00803524195890241
0.00777933127235304
0.00767471639397195
0.00776007491601895
0.00805894352446286
0.00797966879795779
0.00760302162525481
0.00761068634538072
0.00789766013409657
0.00807614805958867
0.00805114873083704
0.00795637854369332
0.00793572518040471
0.00780042941023832
0.00782301870176107
0.00793866975177526
0.00793102106532766
0.00789223167090629
0.0076200219750134
0.00758191686983748
0.00770281797858477
0.00780398963382291
0.00777783241976774
0.00769826847728179
0.00787415411425838
0.00800310556257666
0.00803046828239004
0.00813952846626249
0.00811283395178485
0.00785834406979117
0.00751750709042974
0.0073734596965717
0.0073785652647215
0.00740741097409564
0.00757634033623402
0.00786835215315407
0.00783595674945515
0.00747540951626037
0.00722036832174543
0.00732502379522548
0.00733944579069427
0.00755677321942662
0.00788388645076893
0.0078001539080583
0.00737787124458689
0.00748641972608114
0.00763286184253468
0.00756934906082539
0.00739084803671064
0.00710172638393396
0.00729762912620985
0.0075627949671978
0.00745278795793708
0.00736993318470072
0.00746462513637519
0.00741676715073676
0.00735642048426784
0.00714599570471227
0.00691674027024498
0.00723467577742743
0.00754760642266964
0.00731862324389421
0.00706332526012832
0.00716644626214329
0.00734281914133919
0.00702201916529669
0.00621388895908161
0.00606288392188536
0.00656051299940097
0.00692040164743062
0.00685508971442667
0.00718677597214035
0.00741206135688095
0.00703347687246132
0.00655604714448371
0.00641355281090673
0.00670646347121992
0.00699301059424526
0.00691627224088296
0.00685031994611785
0.00648521748771749
0.00659059491570948
0.00687481653154836
0.00688713367568617
0.00665572073345484
0.00610083994523038
0.00644197100981231
0.00690141384626651
0.00637890137759174
0.00633805368164961
0.00652166556724496
0.00641905590415259
0.00630858729619355
0.00600366142435721
0.00606025845712608
0.0064944935204364
0.00631948994241539
0.00651853498692861
0.00629757408290555
0.0059957466171016
0.0060616552922491
0.00651273817726268
0.00667263151772325
0.00637643724441983
0.00666774733873111
0.00646339380607185
0.00621532107180383
0.00643886702412093
0.00593444331522082
0.00590189822470791
0.00648995591330669
0.00637385269199542
0.00655983579174831
0.00691888494773428
0.00669907084892003
0.00646485412579356
0.00612225906801638
0.00582182471917298
0.00579502055182466
0.0063867276114739
0.00707837780086661
0.00704386505113402
0.00682413236460536
0.00629765529267547
0.00598855409184059
0.00643026867171906
0.00622783020567757
0.00595037954390616
0.00589397814598612
0.00629665338423568
0.00672274412528401
0.00619738525539768
0.0056653437003741
0.00594089157742653
0.00634505814489158
0.00650946153458855
0.00671436487609763
0.00658092034337456
0.0063094732607407
0.00636188246684984
0.00641441825258882
0.00664500525491574
0.0066440125209735
0.00648949383726498
0.00614832078015574
0.00561638766182015
0.00581473010426537
0.00642013439175243
0.00606493034772213
0.00568505451567371
0.00599558884992442
0.00652249499420596
0.00654155426675833
0.0062893812882399
0.00607066177004451
0.00577394769463629
0.00566235052708832
0.00622412352129003
0.00674441758599797
0.00674787393924201
0.00628877933535164
0.00563940258169677
0.00572140607436195
0.00608649594082571
0.00625987137218764
0.00619842135998784
0.00585661967491201
0.00613970788529421
0.00619985135548804
0.00614600419485742
0.00620971713144948
0.00592395762415338
0.00603065138549336
0.00621912162217995
0.00573849253711838
0.00464512228821727
0.00431494297162388
0.00513686717756722
0.00561829919184986
0.00590888077443865
0.00636600407097385
0.00639585882830733
0.0069123952713854
0.00734439060430369
0.00708837459627375
0.00661248020852483
0.00604967301850127
0.00561574045538852
0.00556855100820187
0.00567400267184869
0.00596507812139495
0.00600311420804587
0.00583061015744343
0.00607543991207544
0.00652438937372044
0.00706244193818662
0.00718539355441808
0.00750265599471723
0.00789282526515121
0.00737411380449123
0.0070845950528316
0.00746674297213428
0.00748350300243098
0.00720703955224188
0.00706208304445026
0.00697557600689447
0.00747661492265479
0.00758286680789968
0.00720047774730199
0.00725062762002674
0.00732268468763686
0.00717487765256423
0.00697367350314676
0.00658334347850818
0.0064642192095041
0.0066859565140088
0.00706306787721861
0.00688143686012697
0.0062693606618641
0.00668906673415505
0.00681124208765556
0.00686812671079519
0.00709586130615924
0.00677882988924463
0.00640888808682527
0.00609399467387241
0.0061937191612782
0.00660024197617239
0.00624656434035795
0.00591629806018731
0.00629558041184591
0.00636112692404563
0.00575731713779334
0.00483196180011139
0.00518541069033975
0.00627644034943273
0.00612449044914267
0.00566586924763968
0.00483498163117933
0.00472764320682456
0.00545569037804868
0.00604816600981931
0.00522036615075777
0.00508732761433198
0.00535147484803013
0.00566870819508609
0.00548854502930772
0.00519040537912838
0.00519109207365993
0.00444974268556756
0.00463657288679075
0.00571294220221519
0.00526360636772048
0.00494236759574334
0.00463761319939684
0.00392740298357914
0.00424149475364969
0.00425054237559851
0.00376717271253169
0.00499871121808023
0.00502304160211318
0.004144040844003
0.00436715077790178
0.00344214223980134
0.00214694531979399
0.00324581300698839
0.00435618326378445
0.00458667403745504
0.00456489808268311
0.00405501806668389
0.00348099999607062
0.00329949020048136
0.00335447411931976
0.00297228960932341
0.003555461539506
0.00533096595724866
0.00504590643549592
0.002679109935723
0.001673042066305
0.00442073806515583
0.00488993709866914
0.00341719523694225
0.00406823170397055
0.00433999009317132
0.0030430230582412
0.00211658817721634
0.00261250444325661
0.0014834199616433
0.000625151346939859
0.00110113634906627
0.00146894215446941
0.00313881261565533
0.00410185352722757
0.00372649252915536
0.00337967976171952
0.00331937163896075
0.0031518498116766
0.00317930361972528
0.00306840905325003
0.00243143532194491
0.00180477525059686
0.00274731720625903
0.00360427375858059
0.00374381686708315
0.00464731496517574
0.00538180944418414
0.00457282504690675
0.00380032882289884
0.00403051589599806
0.00472652596661074
0.00536874959182253
0.0052520277702217
0.00475677578128547
0.00505926662908021
0.00558833258212408
0.00542199074000497
0.00508667586504985
0.00470156914913165
0.00451464155452651
0.00436410140976827
0.00437743516260827
0.00488170106315725
0.00527351542176612
0.00576987075283964
0.00556878678883962
0.00483472633867498
0.00428397652614962
0.00445575029770276
0.00525717885736242
0.00505545351840115
0.00480667593556212
0.00499859116075517
0.0048940809350502
0.00484289862806599
0.00540887950018313
0.00517612956032785
0.00444824080619173
0.00429844571798482
0.00396950500240656
0.00376433598831738
0.00330986349882639
0.00320923561628234
0.00348034077194176
0.00402519848740454
0.00420133887430402
0.00349734635157526
0.00253604515503665
0.00284890062132659
0.00369780933322939
0.00361969202783375
0.00323632056226778
0.0024162001926318
0.00272369762892269
0.00436956113530938
0.00326773078743901
0.000628523968652829
0.000442059961671063
0.00101800942025925
0.0012680870897945
0.00207946407185775
0.00224112077438433
0.00146478557989296
0.00133613742415857
0.00370600571012283
0.0049211292000811
0.00412703172291375
0.0035354892022374
0.00288465358391008
0.0027158856718494
0.00447352741504022
0.00563638983323831
0.00450636755843405
0.00320701184006828
0.00321110135625137
0.00361572916414789
0.00422466831309054
0.00374170471503187
0.00267276155646779
0.00293446651623482
0.00315212387279137
0.00366849362048345
0.00498524403496654
0.00522573498763266
0.00299884701204982
-0.000161730959229884
0.000948975230665324
0.00328754775569644
0.00411426447083185
0.00284178425284472
0.0019785776230865
0.00364395981909772
0.00450447584523157
0.00357974441335471
0.00254306614732256
0.00284576871287686
0.00459722967667691
0.00581994469227224
0.00594035887274677
0.00526991787670431
0.00427125527881279
0.0032336081372496
0.00289606054213609
0.00338480802212181
0.00429318043887135
0.0045014453486894
0.00422058823042176
0.0048173438791743
0.00576763372497557
0.00506622472967206
0.00384378404963073
0.00416207105713849
0.0054244936197766
0.00618190555512237
0.00611014652694931
0.00543291678994667
0.0047536814590289
0.00461744715795036
0.00529048433410794
0.00605291734240452
0.00623709721883223
0.00583872603807244
0.00562981251376466
0.00605373577208376
0.00635690473396346
0.00603252059758677
0.00554163110098274
0.0048534378868243
0.00463257854386094
0.00513025879317371
0.00534236720621663
0.00561600212534004
0.00588845391615768
0.00584733651937802
0.00627821785924683
0.00640738389198882
0.00579477743142389
0.00531437943919776
0.00536722716663906
0.00562314264175569
0.00592728922453007
0.00586328544913742
0.00562422308972146
0.00562547776944691
0.00589281259337561
0.00627071335544374
0.00633954023778376
0.00603694502781694
0.00582489537878777
0.00560496594700978
0.00582446778189927
0.00588467555833419
0.00523006269223107
0.00498821998754864
0.00566886257245107
0.00616927848491202
0.00608042853666636
0.00596391215095032
0.00591347231185294
0.00582057252880314
0.0059613552426433
0.00613013291491499
0.00581204421027041
0.0053799567777264
0.00577396779038665
0.00608699282176808
0.0056194737883869
0.00566543207762657
0.00590758541253054
0.00571147598747779
0.0055322305302408
0.00569963958112641
0.00595654825036384
0.00604366539645488
0.0060814466288074
0.0061203037217358
0.00612953099522994
0.0061393599774672
0.00617730662221352
0.00612713914777435
0.0060536763552984
0.0060258549673047
0.00603764279809848
0.00610753816233515
0.00635473869880565
0.00661637348604563
0.00661799837245252
0.00646889973196992
0.00653127293564576
0.00655022075517854
0.00621350594773318
0.00607512871055541
0.00585783593919468
0.00590970494656108
0.0062742046754351
0.00673805555014445
0.00676493061501685
0.00684612558663886
0.00698601221150022
0.00691860786148421
0.00683450594197528
0.00706426624854821
0.00701440989238674
0.00714039756303405
0.00739627699521879
0.00711624974855362
0.00705032195221363
0.00745361985845367
0.00773716586346783
0.00786451212192366
0.00807790669080341
0.00806738656527541
0.00811058626656994
0.00853244576797396
0.00842618606077209
0.00866923291168792
0.00928762498429623
0.00935881193616316
0.00943412696967114
0.00938460916734972
0.0094071995646006
0.00950153290414612
0.00954198127047676
0.00952666271336385
0.0101864908040337
0.0112142086883068
0.0118405083334161
0.012314357247556
0.0129277695910178
0.0135278272300587
0.0142441756509567
0.0153351292013565
0.0158775062913475
0.0167357705579907
0.0190571058245114
0.0206346200994968
0.0231367466951325
0.0258968424850873
0.0282844410111065
0.0312536458329547
0.0343941409858759
0.0369083125315547
0.0405747005626768
0.0456520694718642
0.04966250795993
0.0534628500992997
0.0566943043138875
0.0600128528890369
0.0633645390476071
0.0665930776659483
0.0696493090660462
0.0727378165024306
0.0755246482248809
0.0779730045098053
0.0801189257875347
0.0820748483730892
0.0842601930297432
0.0864884234368324
0.0881838036471042
0.0885713996122666
0.0896518228218171
0.0919942293650046
0.0929472248537181
0.0930573709110462
0.0940194895010355
0.0943893414137271
0.0939518759393349
0.0937276859844624
0.0925894561199472
0.0900834109489813
0.0894161002989166
0.089556754007978
0.0893380504814387
0.0890335369838786
0.0890905097365191
0.0881333154937722
0.0868792939386692
0.0868842147845988
0.0858385623452463
0.082869916361377
0.0808683461471825
0.0791092490529915
0.0768782878766194
0.0744920476962879
0.0715814390026522
0.0686963734406125
0.0657157509821428
0.0625320135322126
0.0595888035848586
0.0568041971242007
0.0541083053589762
0.0515351037436297
0.0492034205582339
0.0469964694361105
0.0452419076376559
0.0438064008250113
0.0423700517916095
0.0410274119831684
0.0399107609584209
0.0391017614430336
0.0384426924169671
0.036910975037081
0.035996523716362
0.0354654845023275
0.0345322944902303
0.0337156920635343
0.033244136786816
0.0326395160555309
0.0326427649103151
0.0331668385350584
0.0322135533578293
0.0313092815729358
0.0311686691658553
0.0305989254849218
0.0303905407650421
0.0303084020833128
0.030218836389048
0.0301002908389401
0.030106938110771
0.0299760212089322
0.0289122368303711
0.0280615435456383
0.028194422465101
0.0283562048741146
0.0275954557571575
0.0270497409581383
0.0267585349409114
0.0264818560981383
0.0261003843770696
0.0259815316063243
0.0254361274901625
0.024773901324864
0.0245354976725888
0.0238288674512112
0.0234084028121143
0.0230818758453737
0.022666430660908
0.0226364619684646
0.0221702085544607
0.021291056827945
0.0208082466980665
0.0205523155315329
0.0203499587999905
0.020101653776579
0.0196733325231951
0.0192795771111865
0.0192957901211854
0.0191354393758072
0.0188053088422281
0.0184596364012682
0.0181747613411329
0.0180950572295685
0.0181980006589723
0.0185373599993104
0.0188013537530079
0.0190147483058348
0.0193146259069219
0.0189437768858398
0.0186147712177717
0.018552362452178
0.0187365599136679
0.0185719248290428
0.0184880536219831
0.0187294153935394
0.0192094766649794
0.0188181512756673
0.0186148259030365
0.0186705321331222
0.0187163468777031
0.0188338854490074
0.0188814022958435
0.0188277685199347
0.0188769869686626
0.0188015025437481
0.0188230276438717
0.0190748805842987
0.0189880069304372
0.0189487822538268
0.0190041086048554
0.0190686777436658
0.0191605083472853
0.0192116944163943
0.0192149073748
0.0191894007747376
0.0194983291404207
0.0197840454392874
0.0199314189495472
0.0199604881858927
0.0198209877224645
0.0199324222609476
0.0202023548026259
0.0203146589056226
0.0204757328868332
0.0204141105126199
0.0203725928633617
0.0206679433307348
0.020839258075157
0.020977193124514
0.0209926009819608
0.0209677674804621
0.0211142278222974
0.0214726221928392
0.0216199473734534
0.0216569567754405
0.021954225542337
0.0221945194674389
0.0223593567287235
0.0225829499377751
0.0229445645318818
0.0232692717475432
0.0234668120016689
0.0237739629666833
0.0240692754143069
0.0244528053719147
0.0245964615280155
0.0244221776015288
0.0244406282811919
0.0244301682609474
0.0243305019896629
0.0242564913835724
0.0243258339032546
0.0244132304624892
0.0246060412733409
0.0248904796547191
0.0253038062506186
0.0258822313176853
0.0265995723000233
0.0274914068522331
0.0289114253585046
0.0309853217466438
0.0337293465152603
0.0370907914674927
0.0416113320217676
0.0478530767133626
0.0558074214706753
0.0657371076199026
0.0772022393439391
0.0884544689046521
0.09638589365519
0.0971631632781085
0.0901883704299176
0.0790275580979815
0.0672134925565079
0.0570109065026385
0.0487382983511748
0.0422515484021542
0.0368876381325822
0.0326427210730672
0.0295558661667398
0.0270915220062804
0.0251341181665498
0.023694428247682
0.0226851929120323
0.0219275887753369
0.0214145451994176
0.0209461192740654
0.0204324236732864
0.0200028154417224
0.019614369050497
0.0193170351723428
0.0190486937547414
0.0187985740766451
0.0187048965693827
0.0186271336747553
0.0184130859616516
0.0183090763665844
0.0184553934471002
0.018383376456239
0.0181506143405877
0.0180230837156382
0.0180740621596306
0.0180454171984411
0.0180337749430947
0.018051178172542
0.0180708942916038
0.0181357430286042
0.0180448509534343
0.0180710056295576
0.01817685662137
0.018152898594883
0.0181544354427137
0.0182668147897629
0.0183447642948796
0.018337183128314
0.0184569153253211
0.0185129691038224
0.0183150127960945
0.0181975058419502
0.0182993618288097
0.0185007829519246
0.0187024192285349
0.0188560095116789
0.0190151268279862
0.0192290021005896
0.0194104021858094
0.0196869758967478
0.0199984727473271
0.0202965730259711
0.0205975851031735
0.0210224782736407
0.0215070702185795
0.0220158041850198
0.0225592617140862
0.0231667905852529
0.023722387335248
0.0241622804610186
0.0247562470755529
0.0253579631018162
0.0259320002596373
0.0265899034250797
0.0275635698190793
0.0284645411155434
0.0291917430066744
0.0301319530964437
0.0312742749452488
0.0325032678223856
0.0336049965068953
0.0347984577725135
0.0361900685302011
0.0376342359940912
0.0390787250348585
0.0403126041297905
0.0410767777975088
0.0410489814281764
0.0404936022191927
0.0401384929002224
0.0404199598812192
0.0411131008861601
0.0420444704184737
0.0431755269665423
0.0443489972883895
0.0454772454295645
0.0464559306075706
0.0474120588992986
0.0483670155362783
0.0493832915637456
0.0504187673159242
0.0513508401836288
0.0523031305860157
0.0532884645575723
0.0542488890433389
0.0552021578529774
0.0561271723925179
0.057042593906263
0.0579692439667699
0.0589104163073377
0.0597364727676578
0.0605274973805874
0.061457890756843
0.0623702792399037
0.06303551621
0.0637310437196722
0.0645809431542678
0.0654794500554276
0.0663619495063908
0.067220087748423
0.0679134660307607
0.0685184010106342
0.0692589651609274
0.0700501508858641
0.0706530065023183
0.0711762223652766
0.0716794564583908
0.0719963091531626
0.0722955008942913
0.0727687688685895
0.0732837095481286
0.0737961691330385
0.0742829927275441
0.0747924796604299
0.0754828096346819
0.076333311261187
0.0772617795758491
0.0786621587276555
0.0804679353844767
0.0823336069192135
0.0844131358607951
0.0865794218487016
0.0885970069053328
0.0906216629003685
0.0927382561575653
0.0948572156846414
0.0968098382307873
0.0988216660272769
0.100969420818254
0.103029188552958
0.10491843363679
0.10685471715076
0.108826159375396
0.110795082404751
0.11268596261499
0.114263486123087
0.115753565673248
0.117087392063446
0.118090918865676
0.118999633451357
0.119743391728197
0.120327616148046
0.120888943711634
0.121530483313109
0.122167071308959
0.122848316677712
0.123520144919638
0.124264283301382
0.124906529877571
0.125492353790893
0.126258991348917
0.126994136915907
0.12751516611746
0.127645870559051
0.127691948520996
0.128001967798954
0.12810243243754
0.128035585888857
0.127986982606582
0.127975583029767
0.127763946276237
0.12735468481148
0.127053129981473
0.126625246318798
0.125808656378888
0.124992619583276
0.124147781885518
0.123212136373387
0.122231879404325
0.121206330413692
0.120085215654593
0.119002479229746
0.117692281107941
0.116225951667654
0.114889281177027
0.113501486743364
0.112159696786123
0.110848991654406
0.109472804992162
0.108275638983261
0.107227772274459
0.105916686422139
0.104643708125608
0.103845358576437
0.102858038727696
0.101897590270829
0.101261284946705
0.100563834464903
0.0999222420112762
0.0992833384849346
0.0984269851652656
0.0974336472346014
0.09657180380357
0.0961548318689815
0.0958554168495481
0.0952900972281587
0.094827173689935
0.0945820831328918
0.0945447628615012
0.094444899366542
0.0943999854820152
0.0943955809564163
0.0939008818804565
0.092840106199891
0.0914434042808824
0.0896150430570791
0.0877552341335775
0.0860828835501854
0.0846388247911136
0.0831937030366336
0.081641974080303
0.0803106388090041
0.0791277536869387
0.0780287338825938
0.0769041090226153
0.0758751985238872
0.0748645604459385
0.0740234796734081
0.0734934588571334
0.0728454737361325
0.0719505442659717
0.0710299903483017
0.0703239807033591
0.0693733665922857
0.0681612000207704
0.0667299165217657
0.0651231595434119
0.0637098460262318
0.0626537310238081
0.0617873691373033
0.0607694060635604
0.0596956749555461
0.0586483409147673
0.0576633705276071
0.0564867219272072
0.0552929748915119
0.0544026097235052
0.0537905956738255
0.0531884370986151
0.0526363782843496
0.0521554855661719
0.0515085489272369
0.0515716542773304
0.051707679810986
0.0513349145395109
0.0509590353888036
0.0504390377298908
0.0498063972086631
0.0497033683970366
0.0497723966808825
0.0494590517787791
0.0493354821881647
0.0496671395333313
0.0500177079139348
0.0509255348654458
0.0530235704510851
0.0558143286943814
0.0596167613964222
0.064305263036092
0.0693586419749389
0.074277646193365
0.0783631553088774
0.0823265627165446
0.0855604087996562
0.0870549526972743
0.0883506409055616
0.0896010713062728
0.0905936611510646
0.092325232349729
0.0941051909797841
0.0958902896107246
0.0982331506196084
0.100996225720578
0.102950921751818
0.103259725968461
0.10302564383353
0.102761726700038
0.101454034161343
0.0999364241793081
0.0993169869820553
0.0985323314886016
0.0974736129944526
0.0971078588322681
0.0964049453175445
0.0951329697219005
0.0938873864910665
0.0929728862840095
0.0916135642430573
0.0898550490922312
0.0891485656380626
0.0886750461801096
0.0884137678979792
0.0883593124943363
0.0873493077882145
0.0856856757474485
0.0841899434109867
0.0832952891293692
0.0824411099694165
0.0818145250313649
0.0818119675530888
0.0816057783070372
0.0808235225764308
0.0805232969288886
0.0799758486877297
0.0793704650187568
0.0785589399094133
0.076897934796987
0.0759988301933508
0.0761956589840809
0.0759683247273562
0.0750861390820572
0.0741778190433738
0.0735501368484547
0.0743166272460119
0.0758140776556236
0.077728877586407
0.0809081692989231
0.0846637511568772
0.0867898717100479
0.0869964074348633
0.0863895933582822
0.0842088519737524
0.0812081876137568
0.0804237921976331
0.0798307864144289
0.0769930354856578
0.0762189942832832
0.0784567266817851
0.0791153797461204
0.0775072146228006
0.0772568438463191
0.078063856628371
0.0782320936220411
0.0765332495655706
0.0752708088805156
0.0765832718411145
0.076967431605576
0.0760351483571546
0.0755266545449424
0.0756924897093677
0.0776536858296886
0.0807112393225054
