1798
3999.43349933624
650.420452594757
1
2
4
0.00311931996783618
0.00271861636599959
0.00334864782397613
0.00350661052243507
0.00342386984554105
0.00364707808273661
0.00374893305357555
0.003515870977729
0.0029642066959757
0.00305319787394893
0.00364131230314355
0.00367027849804896
0.00393026623132565
0.00406823635900315
0.00346127650926548
0.00322427275102668
0.00343018655091401
0.00393501117719493
0.00417851485142227
0.00371971870594138
0.00342366064594211
0.00320889037132084
0.00292051060927692
0.00333413006777586
0.00416377279853651
0.0042069189971082
0.00368102737308062
0.00356940293375239
0.00366031965949609
0.00378550031840156
0.00384145331066607
0.003745802513461
0.0036685557959943
0.00353953949141995
0.00352374671662546
0.00357917408479927
0.00368148371829563
0.00362909350290859
0.00347747455094331
0.00360076868470206
0.00366078571305316
0.00355237320074345
0.00357476311747036
0.00334866054323323
0.00273825004947231
0.00318647777056059
0.00414145655267133
0.00400871656510096
0.00348776753164705
0.00345864238494195
0.00375422822958329
0.00419361303650315
0.00419220044955579
0.00395559665327186
0.00339326170953462
0.00288691482262822
0.00328975244916343
0.00379474841778611
0.00356148212332258
0.00348249210820656
0.00346563625850181
0.00318682358162765
0.0033867268506243
0.00373361310930599
0.00324654313909825
0.00303722900356141
0.00365732232351474
0.00377307579196785
0.00345304597884726
0.00319435397090527
0.00342762822186065
0.00409888533430221
0.00376282648144059
0.00303898667583703
0.00261834783845579
0.00300327620371051
0.00403993514235242
0.00472132922705812
0.00394119895066557
0.00317466100233371
0.00265055099341344
0.00267311634166402
0.00336844634729149
0.0034048734265619
0.00307100411210188
0.00337944149449164
0.0038153239169498
0.00381961277478148
0.00331233255734673
0.00295571772655676
0.00277661788115712
0.00280448688962556
0.00337666681593394
0.00371797480703638
0.00348717422614085
0.00286931984665257
0.00280852387395733
0.00330256194916177
0.00307684856215442
0.00320930118730753
0.00402915443553994
0.0043661325267324
0.00403061823432661
0.00348648711847423
0.00362712491389858
0.00392680909166746
0.00344751136605022
0.00311452751424123
0.00304832575619964
0.00290563626309138
0.00306451645072929
0.00325306202324902
0.00351801497191466
0.00367497583165071
0.00368735075247145
0.00340545532023487
0.00369379345834673
0.00428329692649641
0.00387028913045816
0.00276132304361075
0.00282475865425051
0.00354569035153499
0.00360980973261818
0.00310667568940795
0.00314431212889689
0.00335563340589976
0.00306300578726533
0.00300336471943963
0.00308562580527972
0.00279855851708514
0.00317791974217652
0.00422807176903584
0.00476269995196582
0.00396341469939575
0.0033279939974735
0.00420659571736209
0.00448302012632782
0.00350262419006817
0.00280076933926298
0.00286366406123992
0.00329149269785674
0.00311335187782355
0.00320684418897607
0.00282558273062885
0.00250410011374179
0.0027399472964493
0.00293986138772747
0.00285696280071736
0.00331666414116369
0.00366168824329083
0.00365973531541293
0.0038347803186641
0.00441768737809701
0.00517539673406238
0.00525141229329489
0.00523947646650362
0.00514809301115472
0.00511199709964404
0.00613618347137366
0.0069853210548286
0.00753269346818412
0.00849962877422687
0.00906551536075304
0.00957069863484802
0.0102774814596925
0.0106614601443558
0.0100840030168322
0.00899949042108036
0.00846345227497296
0.00767266981602299
0.00757531305249719
0.0080909819996671
0.00877409607544094
0.00881890094427059
0.00726283166376975
0.00724048280750859
0.00806958670294915
0.00856957281040288
0.00930515890690461
0.0100217236940065
0.0100099704886728
0.00923965018662454
0.0097849205292335
0.0115796731577168
0.0118283540229201
0.0114634188713567
0.0116872853106434
0.011175037464958
0.0114519143226303
0.0117021378315434
0.0116843596474697
0.0125996994782285
0.0139974973618087
0.0150304472472399
0.0150923098992821
0.0149332576497282
0.0147631700882064
0.0153545285417215
0.0160452169878828
0.0158964604974956
0.0158609141163501
0.0159762144988952
0.0171080651872303
0.0180343544137976
0.0169922505972098
0.0161975898090565
0.0163302084375496
0.0165237003789704
0.0171832361290519
0.0166740775395724
0.0154780859494573
0.0152631361361659
0.0153182637224462
0.0153646672846864
0.0155625189546774
0.0160935402137107
0.016232160695231
0.0156992678906794
0.0157273500588183
0.0164269414931803
0.0158540467132749
0.0145759567114999
0.0142916559979644
0.0142899062242953
0.0139514247728193
0.0146798805431037
0.0150230051560492
0.0141097742619782
0.0140332034606644
0.0144697148452216
0.0149548438380976
0.0148024025381546
0.0137526808559078
0.0132519155169804
0.0141364370066655
0.0145845458450189
0.0142980902454519
0.0136046195018703
0.0137361264269284
0.0144034028265259
0.0130028227204935
0.0122356452945184
0.0132119648746304
0.0133238677289204
0.0136365105128575
0.0132442283911991
0.0134572219565236
0.0147335044461788
0.014694047575003
0.0140878456583311
0.0135999506818611
0.0128352895414086
0.0127417788952521
0.0128326749134134
0.0124182444470216
0.0118641295937648
0.0120542371407575
0.0132064498858619
0.0131696568476741
0.0129873767255941
0.0127730682082625
0.0134744906139666
0.0136330978972271
0.0126926567418178
0.012748943689591
0.0134328452448005
0.0139176359298141
0.0134168342359211
0.0128066829223975
0.0127768563560251
0.0128697005585389
0.013726533798466
0.0130917980757489
0.0128334975751168
0.0146605549275424
0.0146522318635909
0.0131211949643018
0.0126202258677
0.0129838389033367
0.0128304617888943
0.0130750573751676
0.0129521099434942
0.0136979942038356
0.013844209813147
0.0139871068665415
0.0143234615353679
0.0136535776072186
0.0134362153245055
0.0143087919585537
0.0138785710173885
0.0123060718285532
0.0127383293607653
0.0141797399156213
0.0144845695438884
0.0150876796295203
0.0156251849841956
0.0150829443778497
0.0147517301913507
0.0139422285739968
0.0129862039429301
0.0135291228392855
0.0135567280357408
0.0128921829098519
0.0133945687370348
0.014284116529494
0.0149603688928096
0.0149385166295494
0.0145485561965408
0.014843231700148
0.0146809305857206
0.0148928661608646
0.0147599781036512
0.0144894205840638
0.0148442275661589
0.0145622230252738
0.0151416788420437
0.015055648896888
0.0150167820130374
0.0150088479553118
0.0146293189308022
0.0143865844975462
0.0144402516100376
0.0143505138600059
0.0144722778970988
0.0148794816339377
0.0156781838407043
0.0158042758251793
0.0156710792350573
0.0153770719397495
0.0153985454763243
0.0153641874471519
0.0149382584440872
0.014016154388257
0.0135499405630916
0.013677405588248
0.0140300636495384
0.0142692425457007
0.0147720148451716
0.0149176138746093
0.0144210590957178
0.0147359609062581
0.0145487259225137
0.0137272451993393
0.0137546981788667
0.0144918617431469
0.0143850345809499
0.0144069954503528
0.0145133386942538
0.013822239277107
0.0144480628370415
0.0149090528797464
0.0145677617941664
0.0145420388886404
0.0145970086729966
0.0145900253634978
0.0144128170011815
0.0138350871031526
0.0140193314639798
0.0143749700882972
0.0145178472713775
0.0145923644451123
0.0145490563352871
0.0140363430698865
0.0137365580613111
0.0141562183754753
0.0141921962752213
0.0146304806082721
0.014783798405058
0.0140647817078016
0.0142586073041207
0.0145957849851919
0.0145074959798198
0.0146432348873851
0.0142963230549361
0.0139595714196717
0.0139583770550373
0.0138987827166742
0.0139123625910772
0.0133907588996358
0.013317303645027
0.0142336068325587
0.0142232070561839
0.0131326825971886
0.0129284028929212
0.0133482428896603
0.0132977666060003
0.0127848997353623
0.0129008539332094
0.0136657535290204
0.0138227903223874
0.013914400306329
0.0138508076024746
0.013083839977697
0.0128537113991035
0.0129122078441553
0.0130809397673965
0.0131913337528761
0.0131541139467706
0.0128427241008575
0.0126856650348214
0.0123978023208779
0.0125008152604191
0.0133245259417981
0.0133466867667057
0.0128474660269735
0.0127885187181577
0.0126871555767499
0.0124785287815526
0.012378806971056
0.0124369642684849
0.0125477142987478
0.0127108926531889
0.0126342037736811
0.0120049431690301
0.0119388381091676
0.0124491595482657
0.0121042050038343
0.0122674470392933
0.0125383072537775
0.011869792649896
0.0118341435083909
0.0121200843228808
0.0116589387364242
0.0112909280551449
0.0115704993385482
0.011717913108383
0.0113383605086918
0.0111775998357646
0.0111056053706024
0.0111027198840553
0.0110567993863084
0.0114926153014898
0.0119096426146108
0.011654094610445
0.0112518338458617
0.0112189208369931
0.0110198186930049
0.0109474610870356
0.0110388811729903
0.0110812774214291
0.0109841133349958
0.0102243257722013
0.00972816928051047
0.0105674214112378
0.0114208185212031
0.0115675838787502
0.0111361684265325
0.0101508766996477
0.00956973798001487
0.00952629276882903
0.0103061441414356
0.0104263498505487
0.00986099881890506
0.00958252388408131
0.00966340608236993
0.00980898468313299
0.0098367780000022
0.0094957777565186
0.0092018853421392
0.00935340734220656
0.00975921468230289
0.00975422743211918
0.00945496819017282
0.00942343636555371
0.00911585527556353
0.00933435353801776
0.00998862273362567
0.00964668407310496
0.00914138719387024
0.00901947724531217
0.00912692705582914
0.00934887246115799
0.0090667875117013
0.00866906050274109
0.00885666006997837
0.0090463609077502
0.00910138364755362
0.0091736123324527
0.00901800484745727
0.00915368002303601
0.00907128284440158
0.0089759702485429
0.00891122944819535
0.00870462594859506
0.00892892657048603
0.00897020411324674
0.00860885630303452
0.00865520504260448
0.00880651117099926
0.00877169303197359
0.00864277219114309
0.00842410553781164
0.00832328206548792
0.00851268983206693
0.00857142495410726
0.00862630993487915
0.00876299588447084
0.00892338406329054
0.00887676621245316
0.00866449336592941
0.00851988736524735
0.00862919147079556
0.00855403031889801
0.00818256652183386
0.00821480415420469
0.00858273831686483
0.00861957561538256
0.00836619442561307
0.00834532334068035
0.00846836511808073
0.00813593976454917
0.0079544170605101
0.00812257948711259
0.00850536397191704
0.00870835092430228
0.00861076274599822
0.00852867052953748
0.00861982374493914
0.00848065019067345
0.00826294035245704
0.00823110860076732
0.00794645333778604
0.00820093385304997
0.0085954931608184
0.00829796211318959
0.00835754933917985
0.00887120279608973
0.00892553038726526
0.00865048753342356
0.00888846381518851
0.00904632703989433
0.00873097833545778
0.00847631691749118
0.00884229272956468
0.00908617260746871
0.00895416598470306
0.00857336812566023
0.00851730849355928
0.00905432183012312
0.00941103708850122
0.0094655571042146
0.00935317666988187
0.00917736858676651
0.00928776024267594
0.00979680044845742
0.0104565271881484
0.010849325858602
0.0112848081672821
0.0115107511158176
0.0115594664554634
0.0120182902819254
0.0128264109582792
0.0136531153088581
0.0146510246025248
0.0158362641575654
0.0171865306721509
0.018251531670114
0.018786843039247
0.0195376015830013
0.0207885869597579
0.0219435231518501
0.0228129514402543
0.0233275782679047
0.0238464901309577
0.0247537757781918
0.0259756617125009
0.0280402035947875
0.0310139246090652
0.0344857271268454
0.0386015999488225
0.043388948105515
0.0489688863514471
0.0556529326798608
0.0630934210974898
0.0713246496063305
0.0809868952752931
0.0918927012001301
0.103761977904851
0.116592134879282
0.130375794425772
0.14384736881447
0.154915649825768
0.161109868113162
0.161118258629326
0.156148040714673
0.148316497685176
0.139773390452183
0.132112163825551
0.125027284325628
0.118473009993731
0.112636752174763
0.107259048977846
0.102581243920805
0.0982242143699659
0.0940524547276558
0.0897812978308343
0.0852234161950217
0.0807664892023575
0.0761978721896293
0.0716121901692597
0.0671086094680704
0.0624775889461959
0.0580204156322571
0.0544833844924382
0.0519568239602479
0.0494923017406052
0.0471123887909349
0.0457186983230585
0.0453432605844049
0.04597118967869
0.0481857454548188
0.0527958961683297
0.0601066651388998
0.0702553255076914
0.0842756488768251
0.103137477786082
0.124600535391458
0.14328745461457
0.153722811472399
0.153396971683045
0.144084842436219
0.129853849730072
0.114733681607784
0.101198614796446
0.0895853515606123
0.0795700877245113
0.0715642902665533
0.065274618103284
0.0599274260482394
0.055260432463182
0.0513624722626996
0.0480473615997876
0.0451003812928213
0.0427410409151564
0.0405420649857408
0.0381275676778213
0.0361327164115542
0.0346648405349197
0.033331466970211
0.0321227524617302
0.0308301797088824
0.0294953261144934
0.0281989323488718
0.0270062222257405
0.0262083763485515
0.0254460144704888
0.0244999939528195
0.0235968093026446
0.0228108395812675
0.0222082748947445
0.021734562814266
0.0211228112842198
0.0203332610427827
0.0196238793475973
0.019060225693733
0.0185614276420489
0.0180970266474612
0.0176356843832148
0.0172589923031527
0.0170427838419904
0.0166701408131289
0.0161502680096565
0.0157328036759115
0.0153969306324651
0.015097007012067
0.014686227209383
0.0143259110403019
0.0141945903949013
0.0140611621988404
0.0138139543104707
0.0136965541179799
0.01365036966162
0.013442772872614
0.0132639529586783
0.0131427541732914
0.0129046271928046
0.0125389072849804
0.0123264037430439
0.0124740841913319
0.012492113563568
0.0123612366343858
0.0122907125568579
0.0121086997915792
0.0120019501559104
0.011947704668655
0.0117686356918342
0.0115760619534653
0.0113951336669992
0.0112453293931733
0.0110606906418381
0.0108881692105577
0.0110005652824279
0.0109756569317749
0.0106137724204439
0.0105024794541101
0.0104772864191932
0.0102074383846152
0.010160229195791
0.010254338778454
0.0102174633464199
0.0101186438000122
0.0100812802753633
0.0100552888804089
0.0100536035644809
0.0101977264555486
0.010205210298246
0.00998739760493307
0.00999818484703371
0.0101538079301781
0.0100038757146084
0.00987134054627022
0.00988505011667725
0.00990458857307528
0.00977551594298031
0.00968279886516825
0.0098633946155876
0.0100693583092359
0.0100770254755124
0.0100620429192351
0.0102057134926685
0.0101234725025099
0.0099982618424207
0.0102399844849349
0.0101539199747821
0.0100431355005719
0.0104520196378794
0.0105306604593519
0.0101698266148033
0.0100061213579195
0.00999630444594815
0.00995748814439777
0.00987941807669091
0.00978001451770801
0.00969014680883174
0.00957458686276904
0.00952388607513441
0.00954078339035127
0.00949009392254725
0.00922993012656131
0.0088999525490421
0.00864578737009533
0.00876242528394207
0.00885128789459125
0.00860250027247283
0.00862567763909977
0.00836596253677832
0.00779796096486411
0.00781720907160689
0.00821691696356604
0.00841980510623787
0.00826394534046656
0.00761595008874334
0.0076246442591934
0.00792977734711803
0.00783297332865541
0.00766689942547361
0.00768477384790135
0.0075241811106389
0.00689766437687799
0.0066558635654207
0.00725265582011456
0.00754794042529707
0.00736278180129319
0.00745069718706299
0.00723436885925442
0.00681245166973879
0.00701165369561802
0.0070093560611413
0.00654223834157291
0.00604290823479211
0.00616671136986286
0.00635135733803992
0.006622577979281
0.00666978322792464
0.00636835342321264
0.00631010115792936
0.00605204428899826
0.00570969318978175
0.00585320161926077
0.00608562984280424
0.00582467316800549
0.00545881820847112
0.0057059025681077
0.00580581989602925
0.00593221759408146
0.00631307190324102
0.00581234196456941
0.00549311245056704
0.00543685846678276
0.00491293655472626
0.00480808450276908
0.00504379027130368
0.00528308083605402
0.00540543603773942
0.00549143738785688
0.00548361322096747
0.00536467720223169
0.0052440953260742
0.00508330343529195
0.00557525603407811
0.00603274608843752
0.00560302204663365
0.00532846859926993
0.0054774881848959
0.00539485265647863
0.00510707944825457
0.0048874624712991
0.00451239508782962
0.00451345099580661
0.00494901915886432
0.00490643513856738
0.00484868006415701
0.00502068580798198
0.00532243252845001
0.00534588176323791
0.00505265560429141
0.00448241151016019
0.0046155065497014
0.00516880824291342
0.0056765608349086
0.00563582793078563
0.00502164654577496
0.00451673395527879
0.00466333369605514
0.00501082105699359
0.00509382460776352
0.00522279381173387
0.00510444806069114
0.00504529765689457
0.00488642065562598
0.00462931550064894
0.00458885046670319
0.00446619150329288
0.00469180434090249
0.00513151057449956
0.00483265097746506
0.00471086620443332
0.00499982345257591
0.00499018509645759
0.00470845267359163
0.00467642811444181
0.00451946900701333
0.00453067945251921
0.00504617939650732
0.00476231787149511
0.00414984041785074
0.00426144661126857
0.00467623768933884
0.00475855005797628
0.00469013680538997
0.00476949136409129
0.00465841299410909
0.0041828986645569
0.00439638021110276
0.00499702838027958
0.00475343319862361
0.00479773848322422
0.00479674367785383
0.00447210321313104
0.00451939796219041
0.0045525429311921
0.00447649748213289
0.00482199517473316
0.0047320332914189
0.00459150365712197
0.00462970807558946
0.00448574991874029
0.00478531556838702
0.00504758120269247
0.00490542715966384
0.00496798528506989
0.00500243802865899
0.00501045031890546
0.00554155158891912
0.00553850761685308
0.00505218872203693
0.00502672922225768
0.00414965643544772
0.00358962981690723
0.00412528800024003
0.00443969743139946
0.00472187686577721
0.00486838943733668
0.0044441953493825
0.00459062362775943
0.00475423790686902
0.00502382346860339
0.00535959028398406
0.00533456968472593
0.00524334758072679
0.00509694929512456
0.00512075579684629
0.00534597179878839
0.00510193470042006
0.00508731628687152
0.00526031541572654
0.00527194796355931
0.00551888086901861
0.0055036454780007
0.00575136846222693
0.00652295420072618
0.00641231334786484
0.00591375165278752
0.00571543932088821
0.0052402662496711
0.00495162506807067
0.00525690412698373
0.00521240476348702
0.00493680517361124
0.00536805238033855
0.00573166254204349
0.00531962085206268
0.00494468499653635
0.00479631266306771
0.00486383822322106
0.00507808460876876
0.00547746614981804
0.00545862458079831
0.00509859338951808
0.00538587250543204
0.00580843902736472
0.00507303314157266
0.00446114817902493
0.00461715512550037
0.00466505910549087
0.00462766780644162
0.00482354504842764
0.00521273171901278
0.00487246377165549
0.00413612154032537
0.00375484130526522
0.00422683936109254
0.00425137416165134
0.0034037886591711
0.00398553147905331
0.00415944939760104
0.00347166871805247
0.00331956575581952
0.00415255922248263
0.00422987558689831
0.0037848985547219
0.00378551651260125
0.00361392636877192
0.00208167595731914
0.00226714218971704
0.00335046935918726
0.00335161909340755
0.00188631423274806
0.000791337840685619
0.00134365559219344
0.00200132861874931
0.00225695471565178
0.00287641185774719
0.00281589732319991
0.00269124316051365
0.00296045124330552
0.00253011050582651
0.00268697196560715
0.00222263162489548
0.00265403703845246
0.00314289685467674
0.00174575307590291
0.00153831934434439
0.00226340744730391
0.00188498914968194
0.00162622206624312
0.00154773853165218
0.00227042292855594
0.00327795485422969
0.00291491374264087
0.00160017903678724
0.00284471649256321
0.00360316345110508
0.00283327876384033
0.00185061253076165
0.00268321654743715
0.00243814482519913
0.000869754064593514
0.000859429907114495
0.0012331958246801
0.000657467271432095
0.00178195129414812
0.00120285008935739
0.00048261250387963
0.00335331986283771
0.00446377889338185
0.00239896788253051
0.00249389880254675
0.00227194659829641
0.000192663869603782
-0.0011806401664699
9.05879210186633E-05
0.00190548925897761
0.00176712893888817
0.00204719945135565
0.00331102065513079
0.00222367505287281
0.000566943374244724
0.000690908379788063
0.000628724204686352
0.00131615659661541
0.00225647033027002
0.00183310170707553
0.00149360431190234
0.00157202535009483
0.00188975213121977
0.00240045786426613
0.00323385317598311
0.00318800707581062
0.00286832192048953
0.0030157110430638
0.00295188463284045
0.00318734528528621
0.00380517638703327
0.00399475716919701
0.00333215731265092
0.00354580236253566
0.00370251535635026
0.00295968947026867
0.00304853629197811
0.00438360250295483
0.00381532113142606
0.00287716637566626
0.0030312547782794
0.00314547901751407
0.0033231930805204
0.00329651039979704
0.00348694915563142
0.00361796134582986
0.00344945531059149
0.00344732161613122
0.00361119583282621
0.00414221130060238
0.00380213526917548
0.00296040815744236
0.00260401050427766
0.00258718968494188
0.0025176779127956
0.00278397468726213
0.00359029709879556
0.00455023027553189
0.0035131093423456
0.00225083657995087
0.0021077756298306
0.00278268382040492
0.00406598545551122
0.00337343735641795
0.00250069841167336
0.00286143639998312
0.00249286556075655
0.00281077280974963
0.00328865867958834
0.00202304484761514
0.00198989843163922
0.00174951643517047
0.000650585687240306
-6.60923829269678E-05
0.00126127154578318
0.00221740252134134
0.00125435263120389
0.00248010368110225
0.00116261776670961
-0.000980059790130153
-4.44596749878159E-05
0.00104829852367568
0.00189221719294266
0.00197887276287697
0.00275185662961505
0.00488875436806649
0.00418337698005202
0.0015599757537666
0.00185523941880482
0.00281846445173167
0.00281301371058445
0.00278939013121443
0.00300474914728193
0.00309150910693751
0.00261376507824863
0.0030239569198817
0.00389212976184734
0.00300343154692135
0.00202390206259611
0.00256301734420551
0.00380599080328784
0.00317307152196383
0.00208115597316965
0.00324338648922843
0.0027727467704875
0.00178826803604671
0.00194460332419303
0.00182314282400891
0.00231481605849444
0.0026639880985708
0.00269003122434626
0.00149732575568299
0.00200888341204901
0.00330460267776698
0.00356220950959613
0.004044887107471
0.00380429511122725
0.00331904619462683
0.00363731051887585
0.00358980763276657
0.00329154354279287
0.00283853861082998
0.00266229746775423
0.00226452009805222
0.00301217881462162
0.00383014585229017
0.00375058154083635
0.00368782747444405
0.00319216963373002
0.00339689024294549
0.0045691896810821
0.00447138641550197
0.0043098534320813
0.00425547864253956
0.0038040007001536
0.00401379055508786
0.00391568663073076
0.00390557843251063
0.0044482031219649
0.00486129858847005
0.00464150267329468
0.00422731112137312
0.00454677781072617
0.00527015592635859
0.00533169613354459
0.00514364151394428
0.00527178079853335
0.00513091197847457
0.00515258396833167
0.00524215338831244
0.00529584781144484
0.00503537908339167
0.0046965484131973
0.00500143267076376
0.00511432714017517
0.00474747055053008
0.00482843122804349
0.0053329003532609
0.00538925321086435
0.00514864985708329
0.00494350610223536
0.00493961021793067
0.00495615575720984
0.00517029957131223
0.00547036039875278
0.00502035909935316
0.00484763357026435
0.00511700089599822
0.00502858315127156
0.00491738329458861
0.00504716624313528
0.00506730734758686
0.00484594946448748
0.00458099249171284
0.00464330498686861
0.00496981179246567
0.00506808876140011
0.00502001685991301
0.00517359935257227
0.00508475849323188
0.0049697033280106
0.00521928113372824
0.00537651279281983
0.00525433766909165
0.00492178260167975
0.0051007043479796
0.00546441586755679
0.0052538074781305
0.00488003353631599
0.00485551540402081
0.00524109374431892
0.00543456472251704
0.0050543046510921
0.00500536748279531
0.00540207496554055
0.00563685579413226
0.00561287900598718
0.00550058534666535
0.00548748705211608
0.00555918070035952
0.00579137829632179
0.00601126110286792
0.00576279275322549
0.00549660164246608
0.00547281551958705
0.00551703075203135
0.00563183683191354
0.00560281995099062
0.0054575969944062
0.00573434351254671
0.00615929124474038
0.00639376674459273
0.00622655203544837
0.00600977822022482
0.00571380268059893
0.0054298290479115
0.00545971209060999
0.00575468383081484
0.00597025542843053
0.00618562648162748
0.006442001834109
0.00629594938309919
0.00628279338645714
0.00641575272151793
0.00656666411459088
0.00671501421332802
0.00672044049773211
0.0068131806644411
0.00705672521436793
0.00722805299559154
0.00735991100624387
0.00785662565658621
0.00804618489082308
0.00769459131154461
0.00772645766655037
0.00749493869071231
0.00729775593942949
0.00749084383825744
0.00772877857983437
0.00820799040027461
0.00874016004073513
0.00888537835622244
0.00867920582338939
0.00825183146665238
0.00794019992347203
0.00797322823243965
0.00832751953879804
0.00876031281385281
0.00890362580210559
0.00943339168269224
0.00986329538868067
0.00922815170497666
0.00906455679983077
0.00883626345342178
0.00878986247347919
0.00932743023436011
0.00957072031607935
0.00999752769725669
0.0112075422748075
0.011955171688078
0.0114957925925103
0.0113645225842378
0.0115254442770322
0.0121657476977202
0.0126423502742562
0.0126819979528927
0.0130195319530893
0.0130067751174195
0.0127721449719624
0.0132364260991508
0.0138130273300767
0.0139047944529111
0.0141363201681751
0.0144769874148885
0.0149934206393549
0.0161941785481624
0.0163706822952712
0.0155292098652532
0.0155958028875096
0.0154203428198528
0.0152039232597573
0.015455111624857
0.015676469485103
0.015922793583646
0.016614840327376
0.0169450120964524
0.0158996242216477
0.015037598171265
0.0148564059417342
0.0151877322208522
0.0154889969203736
0.0155562545380658
0.0151805017947214
0.0145909370577055
0.014517755083376
0.0144113909498841
0.0136548448486294
0.0132478353352601
0.0131743662563647
0.0130248651142173
0.0129210289034084
0.0129770486632277
0.0129189179004248
0.0126455685627344
0.0124964790954823
0.0124648144009673
0.0124755304838607
0.0122726462005659
0.0121154249951032
0.0121567990016173
0.0120617077521592
0.0118362543234854
0.0119090595669519
0.0121349785113477
0.0120137760368986
0.01183735353426
0.0120632615490272
0.0118767191081942
0.0112089679596745
0.0113429783618892
0.0116226047289025
0.0112665166443474
0.0110130495014637
0.0109428277450577
0.0110616029080413
0.0120643599883823
0.0131885962881526
0.0122245103654592
0.0111404061174277
0.0104669108684543
0.0102042363033977
0.0105711716677994
0.0108397159452505
0.0112742832451751
0.0115318688617299
0.0117282503931011
0.012248382884249
0.0109567113832593
0.00983488962582861
0.0102141180941819
0.0104939539941883
0.0104772337643576
0.0106375015958097
0.0105841693673015
0.010532269233201
0.0105845371049761
0.0107259741899382
0.0103143003452955
0.00996129340687553
0.00982637480474882
0.00956207297794074
0.00959602586619836
0.00974191105509624
0.0102313651199582
0.010608381421815
0.00964915925815128
0.00933977739126444
0.00957718072813589
0.00990456672274202
0.0103755698428313
0.0104679494557477
0.010531358159933
0.011102188257123
0.0113002608291943
0.0113493634489974
0.0116514706393276
0.0117604211880917
0.0119098921348579
0.012516526967896
0.0134526097541589
0.0155681546338247
0.0226160037266734
0.0380449560694986
0.0565993438156054
0.0660494660085609
0.0699680173806443
0.0721862752892512
0.07139063847117
0.0675588882670695
0.0626416233647412
0.0582431858605047
0.0524120645738596
0.0432349190567613
0.0379219944153423
0.0349381026264606
0.033161440416225
0.0313060481197601
0.0289905975376246
0.0274448819365934
0.0266274911687575
0.0262894180961358
0.0264346226064962
0.0257823766620143
0.023526407263782
0.0219553013510252
0.0212543524438589
0.0204370661552203
0.0192566514517346
0.0183971575345891
0.0176754803469782
0.017357423456348
0.0173419240513375
0.0162882946186116
0.0150125536320115
0.0143950683264201
0.0144895024436334
0.0145568365702743
0.0142859811068671
0.0143181733302923
0.0143990284831547
0.0139931257305109
0.0138478691136554
0.0141143072789137
0.0141317714978105
0.0139209451892999
0.0133024070689329
0.0128486485866458
0.0129142349827303
0.0131459886991741
0.0131712926862063
0.0132367075865603
0.0136747167240974
0.014802379475597
0.0161805934402461
0.0168541426847196
0.0170686282639982
0.016774595179262
0.0164439817319982
0.016442390618199
0.0165915762952784
0.0168399890474714
0.0169177200368184
0.0163844245961142
0.0155277106432843
0.0149312171663639
0.014828735901305
0.0149293568205437
0.0148907748680222
0.0148344147153595
0.0147126265031905
0.0144308984962089
0.0142957597327348
0.0142157334051332
0.0142260783737958
0.0139808894568622
0.0134973706941444
0.0131186915755689
0.0129554141585795
0.012867354903537
0.0127328958099287
0.0125364454692973
0.0124292356314332
0.0125796907235278
0.0127864491985808
0.0129806411816382
0.0131987982429541
0.0133940077488362
0.0134047649970186
0.0135336566173161
0.0137590249710862
0.0138801647208404
0.0141489206626508
0.0143096835659452
0.0142370053632026
0.0142420395834769
0.0143258549223396
0.0143362653169884
0.014383696167717
0.0143764949050662
0.0142203978153502
0.014163158265331
0.0140584972300033
0.0139111540125257
0.0139526817802241
0.0139858557662267
0.0139472359716166
0.0140644646336577
0.0140356660187592
0.0139460044035552
0.0140914129662024
0.0142086541624095
0.0143129966803309
0.0144475301182072
0.0144929417041472
0.0144512441496099
0.0143444816541432
0.0142926922281164
0.0142959740204338
0.0143645602396921
0.0145513410040995
0.0146207972992452
0.0146241240912679
0.0147016504817594
0.0148656069626473
0.0149438622707964
0.0150282152281395
0.0151223323614407
0.0151281997475243
0.0151383702623847
0.0151386621439156
0.0152693478805508
0.0154290168926894
0.0154626069056171
0.0155474277372444
0.0157794105273234
0.016004596242022
0.0162126959746291
0.0164922592369408
0.016601424904514
0.0169381188832415
0.0173445648903283
0.0175952604645177
0.0178953323242276
0.0183101619562476
0.0188082882928093
0.019324522759427
0.0198536702674305
0.0203432280876563
0.0208316958511502
0.0213261232480623
0.0218531061916199
0.0223592293342771
0.022972364995051
0.0236952841641454
0.0244400847899709
0.0251190973436261
0.025705391565628
0.0263627270251959
0.0270345258496989
0.0276025956610192
0.0281300219294649
0.0286743608140735
0.0291846783953097
0.0296762886100649
0.030141013949924
0.0307712314504269
0.0315421395633219
0.0322407826870497
0.0328748891788462
0.0334430613099901
0.0337401242071683
0.0338315965806527
0.0340568742769646
0.0346116979052255
0.0353825161113094
0.0361384839584939
0.0369894979475583
0.0379156893783646
0.0387005282673314
0.0395139789613935
0.0404492826748906
0.0414972290778304
0.042570757897727
0.0437318517478615
0.0449230125111311
0.0461201458178206
0.0475278111152501
0.048962380842234
0.0502175109471176
0.0516018776403396
0.0531559373034794
0.0548864927317891
0.0567026001750669
0.058532822735426
0.060215351961783
0.0617538091912102
0.0633266268206852
0.0646927508111506
0.0659578063805162
0.0673586812001218
0.0687748260257323
0.0701659741424557
0.0714672720778159
0.0725424513075378
0.0737150538984752
0.074958142922535
0.0761073810180066
0.0771958039409236
0.0783224692087761
0.0794108945296531
0.080601212303343
0.081770359241984
0.0829175887618033
0.0839900990812272
0.0851303870803557
0.0860853945012984
0.0869509590122539
0.0879107799195831
0.0889624217650742
0.0903125193266172
0.0919247096156497
0.0936468415520599
0.0955133772263503
0.0973603692725597
0.0991784252329143
0.101054009207399
0.103019841788644
0.105012980776356
0.107066360243739
0.109288712424804
0.111698494627112
0.114321459621145
0.116944165940639
0.119446437969159
0.122130167663852
0.124779030112343
0.127545796833434
0.130146662862221
0.132273535824444
0.134202779356212
0.135842194345719
0.13710324701787
0.137885306122317
0.138329663398884
0.138675506202367
0.138934643012679
0.139194840786264
0.139499480886623
0.139877968321211
0.14012773964971
0.140209992785527
0.140242594387323
0.140291494334804
0.14024444409805
0.139814917742863
0.138981510076871
0.137831639530838
0.136185322523277
0.13451639711222
0.132765968711299
0.130888914419502
0.128902974385576
0.12672962982937
0.124682299727268
0.122684571401128
0.120105367017022
0.117301979418683
0.114449062247415
0.111626800501594
0.108589720967297
0.105392822557353
0.102296944192193
0.0993448460685988
0.0963219392716904
0.0932790428799448
0.0901759171328594
0.0872304942472374
0.0845597056473523
0.0822764606406602
0.079970151532849
0.0777271041913323
0.0755712249335681
0.0737731928156525
0.0724207703763987
0.0712147304585907
0.0698509036559709
0.0687579866152464
0.0679927469905128
0.0674694545123899
0.066948737875467
0.0661372496899777
0.0653832240652627
0.064695415646979
0.0639842030848714
0.0632667265818849
0.0625142146934421
0.0616454884039354
0.0609003226349322
0.0603835797954988
0.0601170429375972
0.060060447401068
0.0601933936262679
0.0599807289887239
0.0597169887655605
0.0592919992389283
0.0583271579688951
0.0566874810298453
0.0547071527705921
0.052860136069316
0.0508771198922115
0.0488821746521033
0.0472619735406647
0.0459021315009978
0.0447645911905149
0.0435987932139325
0.0425488911139128
0.0416705051071769
0.0407934021663931
0.040249550066961
0.0396605934867543
0.0391433850610351
0.0385489141105205
0.0380099808709667
0.0375679332006713
0.0368861719496611
0.0360599293323786
0.0354977317107816
0.0345804128182144
0.0334020766556652
0.0325219517059364
0.0315425131674966
0.0306296549646721
0.0300938839823717
0.0294215547415912
0.0285433265917432
0.0278302076230068
0.0271681327328668
0.0267208042066493
0.0267908961110275
0.02685228091916
0.0269024813625051
0.0271565133139889
0.0271837509856652
0.027700139059684
0.0282267587865322
0.0284480554784064
0.029118350019766
0.0298214306329474
0.0302452407526568
0.0302689256332386
0.0298792380917311
0.0296440502546468
0.0292873212055047
0.0290980052904206
0.0289157218621851
0.0288536074737419
0.029575008373953
0.0299584005879494
0.0303982624144188
0.0311767051777324
0.0318608132893436
0.0334706148709674
0.0361034583538685
0.0387618350734901
0.04038222243463
0.0404381509939227
0.0396462716458266
0.038395536820425
0.0369069669800016
0.0358293469643075
0.0351986096416945
0.0352156188961873
0.0361295053386219
0.0372169722950138
0.037925022119601
0.0382040886463022
0.0375158828072038
0.0367489933410774
0.0360719457651749
0.0359026841188549
0.0351310129272378
0.0338347157524087
0.0336045739212174
0.0340522415893169
0.0341722345500985
0.0339584382046684
0.0347616317454052
0.0350338567867622
0.0340417856753192
0.0340784817440316
0.0346942612543216
0.0345699815048788
0.0343642876102189
0.0345715688092464
0.0345048739854704
0.0342409622912185
0.0346484589613744
0.0345278449153424
0.0345606058248992
0.0373082891463355
0.0446114322067132
0.0536437595570985
0.0571177938748394
0.0569047284574095
0.05946944027685
0.0668317601510587
0.0798088594391372
0.0941111586033493
0.100852909772107
0.0944935291161972
0.0804667863093002
0.0673176347188813
0.0577457171801264
0.0525660454249339
0.0495679814862022
0.0467246413786907
0.0441478311558539
0.0433588695239888
0.0442420865474008
0.0442900052603339
0.0427731456859101
0.0418876816948472
0.041786070988373
0.0416691912032811
0.0413950150106409
0.0405729084134386
0.0400837786023478
0.0387876048697033
0.0374734159335681
0.037855115651384
0.0383477658408022
0.0366315183847206
0.035842425599324
0.0377382889262841
0.038158014324884
0.0354914944278346
0.0352233482565619
0.0362766554372128
0.0355426978761786
0.0346021392721785
0.034796764108851
0.0343435689901243
0.0336423203504841
0.0357508154602132
0.038704638775644
