1798
3999.43349933624
650.420452594757
1
2
4
0.00157373593569298
0.00151559911131671
0.00155754520453576
0.00184815157918971
0.00196052794651489
0.00184802869225972
0.00143202502683857
0.00122297832417061
0.0014361719851224
0.00142633900847106
0.00112735594500069
0.001273788507408
0.00163619514557964
0.00147217876274802
0.000992795348969773
0.00139755615045987
0.00220657689063844
0.00220609865213165
0.00185363102247429
0.00151560520246582
0.00129065937841813
0.00163111035442973
0.0018524809210254
0.00168700392126074
0.00179057691987532
0.00160853369140635
0.00170335559152079
0.00204699037314211
0.00180298649367138
0.00138918357839522
0.00139719494996047
0.00161971094888972
0.00175699311633626
0.00165996903108572
0.00146051913076078
0.00163845561150171
0.00174274261118802
0.00182556574835424
0.00177913586719749
0.00133999772717476
0.0012114507772036
0.00129821898471405
0.00154699660004073
0.00200992929942388
0.00205350299797739
0.00198119075783439
0.0016668266850765
0.00123620895980063
0.00151057784274365
0.00198635896969239
0.00218568102665378
0.00189927432914293
0.00149461448038473
0.00132198906076368
0.000762326039502881
0.00102882931012435
0.00197381408065176
0.0019578440209177
0.00153194637412564
0.00196229617712252
0.002436355854281
0.00199742238606127
0.00201331614604933
0.00207768015337963
0.0013645602349499
0.000793870063063324
0.000713020514913859
0.00144773000599382
0.00246080840451065
0.00239324267535702
0.00186099641514118
0.00205430162345458
0.00213221510651997
0.00188064153308161
0.00134753121742996
0.000762617229452316
0.00129849939945516
0.00242289902076107
0.00231825743024864
0.00202006481933849
0.00175018283944808
0.00133080792923419
0.00126550412885453
0.00120083957539398
0.00156152476595086
0.00209250277746753
0.00208906976534027
0.00120464195822115
0.000838473782079188
0.00115282119572176
0.000753445941124288
0.000718307049861278
0.00115044377789892
0.00163908849809333
0.00223879632083271
0.00208441938737882
0.00160434448548827
0.00150645851598584
0.00148379300660553
0.00145344820461441
0.00151820139493246
0.00172312720185092
0.00157841018638081
0.00101377638882094
0.00145279275948735
0.00199237131492258
0.0011722253363277
0.000904001520780109
0.00143036552316136
0.00171280980236389
0.00163319908782465
0.00123772583149629
0.00125345321396055
0.00124921985346756
0.0014263915697647
0.00188456335137832
0.0017559867783339
0.00158346532539425
0.00168298745819515
0.00166198382190059
0.00149163379952335
0.00161889873580072
0.00187600574921456
0.0015087779360318
0.00113381371334986
0.00140109611823532
0.00175454220011733
0.00179337661784617
0.00165617145542229
0.00146522294566504
0.00147662097414854
0.00194912660759655
0.00198136276684106
0.00217853608817214
0.00257476864138861
0.00277356816277705
0.00228491021685963
0.000740900945051374
0.00047875582138246
0.000956959247547316
0.00159602810924705
0.00144866018319085
0.0010916470510649
0.00113767776963408
0.00129953686829275
0.00166982583151041
0.00173586675617647
0.00185789394180731
0.00182598999861181
0.00165885073556785
0.00165417944482834
0.00191402947088689
0.00218481270858016
0.00237784380188288
0.00270271283467282
0.00283489209432826
0.00280430970234176
0.00350246505974709
0.00401169384659666
0.00438011246257058
0.00495420127085903
0.00539004548184179
0.0063684271676355
0.00679702658459187
0.00664124229896606
0.00615014222586123
0.00491328225309381
0.00451670566530269
0.00473427174894649
0.00446498519532823
0.00452754384259413
0.00484316095628677
0.00515743131011253
0.00507608721598165
0.00438888015885322
0.00445549823275352
0.00542690704387728
0.005482814840399
0.00488668680990846
0.00554267670342277
0.00594795539089443
0.00576115026124303
0.0061742340057389
0.00678827143747837
0.00660558820623796
0.00734197983512559
0.007999101451016
0.0078486931059351
0.00778539891653718
0.00763236243021852
0.00749637116817094
0.00746850392880745
0.0079487369248567
0.0079926909840993
0.00798413051113625
0.0090961658381428
0.0100477466686366
0.0104542021778056
0.00986281654754033
0.00891435738087789
0.00972539511987533
0.0105555326269872
0.0110728263871328
0.0104131268701553
0.00950664719323252
0.010187269782765
0.0113591845773506
0.0108637954514853
0.00986040512132266
0.00961149576334809
0.00925844279318917
0.00893366094533041
0.009306133382768
0.0103299140477172
0.0102381518947518
0.0102631604525041
0.00972972783956844
0.00851387267470878
0.00864861660236479
0.00890304933774224
0.0085617494135537
0.00898706240702064
0.00906002030080447
0.00875391310970066
0.0100004030436712
0.0105886451653656
0.00992378380401777
0.00946855050173824
0.00850336711651574
0.00793975378312016
0.00917903749485945
0.00987460143149453
0.00896251436293227
0.0081962369782175
0.00823117936935431
0.0081939571659388
0.00759254278458031
0.00763213606836702
0.00865919601469154
0.00886038545545887
0.00804938927144733
0.00751333641187178
0.0078337096481589
0.00833094703020862
0.00859622872134157
0.00809064175157147
0.00849999248442344
0.00955542500812425
0.00948426677557443
0.00832005521993767
0.00771533607170175
0.00725435682189832
0.0072452945454782
0.00712953768861514
0.00715515667702482
0.00743020517899633
0.00830369496711986
0.00954951247507331
0.00974507859091874
0.00866354771767953
0.00774488322273085
0.00764739481727452
0.00781322320414229
0.00694941176442271
0.00710504891005664
0.00783842441284871
0.00818385650831976
0.00767046052881043
0.00815154612797076
0.00856504902483714
0.00748536563950008
0.00621031677036252
0.00622619127462564
0.00715450928239011
0.00811458043386451
0.00730555246423909
0.00762796201228883
0.00774982851365317
0.00749693442996679
0.00857736596477476
0.00829950406518283
0.00734080463033674
0.00698145820172743
0.00697763984856427
0.00716511588265607
0.00757482273418708
0.00837259302504399
0.00901928592446378
0.00821253108614072
0.00806440359270248
0.00846256203261779
0.00835009347049001
0.0083604067113283
0.00836646612291348
0.00883034940809778
0.00907700881307729
0.00836369905166502
0.00756907338736445
0.00670416048517879
0.00602118236068447
0.00645678843077531
0.00761636077709982
0.00780933052718004
0.00783333335736713
0.00843326098144796
0.00864494228599022
0.00776918907253107
0.0081791338366416
0.00860670421897843
0.00869026319865049
0.00870707167964901
0.00897653086329962
0.00867447059469782
0.00816447101855029
0.00814641444519423
0.0075204846237729
0.00758247944290219
0.00768092814788547
0.00737952752556962
0.00763901344163508
0.00858943230494707
0.00926916718347873
0.00927724950488395
0.00835549617983198
0.00699490411623687
0.00674826589631135
0.00810168643065301
0.00893075152652736
0.00856124601085264
0.00934339801840692
0.00875887192221737
0.00786154046376897
0.00826690904643483
0.00807806306504121
0.0077486920323423
0.00814224756868022
0.00837376549263727
0.00835219882356032
0.00852120423806028
0.00839513712671505
0.00779687638790786
0.00774313773789988
0.00814242368763184
0.00793055100262525
0.00719166764604164
0.00712050730177246
0.00800239589321686
0.00783536434071899
0.00753717565960917
0.00794651759887119
0.00822599264595061
0.00785913559635211
0.00790339536726757
0.00787690109726927
0.00805957303606919
0.00871433329443864
0.00863307194319688
0.00757774346860056
0.00769129516538551
0.00771375731831561
0.00724250756262288
0.00746383191123782
0.00735878558832621
0.00738237833448783
0.00724717011676637
0.00712727256637952
0.00747935134670169
0.00759965638717359
0.00753071771374976
0.00770254194596556
0.00800845831850626
0.00763978732413678
0.00764953074538948
0.00783777217400947
0.00785666810998077
0.00775837151745116
0.00763903188545946
0.00727032575487024
0.00775170865378579
0.00778586419830213
0.00727863130847535
0.00771262355916404
0.0082545840283219
0.00779980758906539
0.00726809523028232
0.00700836992190841
0.00718223806240134
0.00735201360612666
0.00647028568672969
0.00675665522081213
0.00760077991665483
0.00728871168688899
0.00714750853806667
0.00708494035351832
0.00692339895619382
0.00716219797375358
0.0075064057294295
0.0071136724273242
0.00627222540296819
0.00655993134878112
0.00686683057113576
0.00680619254339891
0.0069703796088225
0.00685727977745436
0.00689596251953803
0.00646524577521694
0.00633631728399389
0.00626630288499222
0.00640702376649441
0.00636028905259701
0.00631901362344657
0.00682037034677459
0.00658237481564988
0.00611315238771048
0.00676365633752167
0.00733585521158249
0.00670092634876564
0.00639035132667613
0.00638755774125673
0.0060643316379725
0.00611294452290785
0.00614689220589553
0.00609256213910792
0.00578804639391595
0.00592970181159519
0.00598807533333915
0.00593626307085788
0.00563153344352881
0.00541956371785753
0.00570258611196475
0.00579696701724886
0.00552544161449238
0.0060301000158111
0.00662512604570763
0.00602247591149362
0.00545413718687475
0.00564746032367969
0.00560062703264693
0.00545200324066831
0.00579545121571852
0.00597727887887221
0.00590559952042817
0.00570044175046752
0.00524142717591754
0.00476527324689697
0.00468405955812653
0.0052002218189811
0.00529129250495838
0.00508702503055609
0.00522052917752485
0.00525216823980856
0.00492958667980959
0.00506027139725526
0.00493103224280422
0.00463441709697869
0.00475775234642687
0.00501992332790229
0.00504998845939575
0.00499150618223532
0.00505063851644683
0.00500866115759802
0.0051057536665782
0.00510945447259421
0.00474876656466735
0.00452250220058432
0.00479577603853652
0.00489557427408552
0.00478045463692815
0.00469290955517229
0.00462172918367277
0.00427181152065781
0.00407713030595173
0.0048467923086307
0.00504292364765142
0.00475321015923931
0.00473114459475222
0.00485441324801096
0.0051085021139522
0.00504345757561931
0.00443458910518813
0.00439670310829688
0.00477489762365123
0.004712923327745
0.00440757987351472
0.00428909137986261
0.00448585364011713
0.00460574104570865
0.0043099554550268
0.00383118293231079
0.00417951266887999
0.00463978333644509
0.0047663303033962
0.0047800671358271
0.00479241494208802
0.00452146068778186
0.0045091177906081
0.00463449873623459
0.00455230504844189
0.00477104726688552
0.00482625301266066
0.00477742438885963
0.0046937963558652
0.0043266393289803
0.00415728575271583
0.00426591990453229
0.00443562090627656
0.0045255132430695
0.00464946083683806
0.00488041857031617
0.0049766127468906
0.00471413685496827
0.00456598611501544
0.00474058875775867
0.00479142769624136
0.0046498980612537
0.00480260751273754
0.00518097340259
0.00540084717457249
0.00530105578359254
0.00535638254559082
0.00527174558218462
0.00530053382355796
0.00517206857381668
0.00497199515340921
0.00488023051975947
0.00496440152695752
0.00519282186442557
0.0049073298057851
0.0045966932040216
0.00484639518001773
0.00517439562672931
0.00516107133693944
0.0051166087033725
0.00525572895806031
0.00526577608135019
0.005371338463891
0.00558403072068047
0.00586015537410994
0.00647625676786202
0.00657660393881974
0.00604134660972618
0.00572168602009426
0.00583103410958177
0.00615671495846085
0.0066098596110338
0.00669530684283322
0.00710342694176798
0.00777481364053575
0.00756384190064184
0.00783680638767622
0.00907309086996545
0.0100927154402275
0.0107178674023041
0.011190422104445
0.0119905854029538
0.0132465439231938
0.0145099313064121
0.0153526251625785
0.0161987592002542
0.0172220713705536
0.0178325824381145
0.0184484360381715
0.0193500246292037
0.0205956819495578
0.021835584747376
0.0231982770154451
0.0254173634278748
0.0284403442599093
0.0321896433380202
0.0369769764406947
0.0423417706046851
0.0484104000776658
0.055407045625229
0.0633482588634412
0.071828207144235
0.0808671161685246
0.0917232176389971
0.104388746692318
0.118032237023066
0.13271136064114
0.146790288504215
0.15788082270208
0.164304641577602
0.164702163606949
0.160043938968542
0.152865820262563
0.144630271350564
0.136622453874606
0.129525425890821
0.122957746128946
0.116806668486437
0.111547084995505
0.106910504970788
0.102527205953552
0.0982747574588912
0.0937789726092813
0.0888112429391453
0.0836502171719621
0.07869778993101
0.074013939583427
0.0690421490813466
0.0637626183758374
0.059173103872809
0.0553839334442556
0.0520340238831865
0.0493931268749997
0.0473976105743401
0.0459327520175405
0.0453182814617766
0.0460495581956857
0.0487260310913742
0.0536372391500758
0.0609498185580351
0.0716512224054772
0.0863361758096123
0.105098557922969
0.127427101778191
0.148449156149057
0.160239599262953
0.15956323356748
0.149902461662692
0.135803440071181
0.120170124631458
0.105508388957695
0.093110474406953
0.0827023062152312
0.0738117734314051
0.0666692795432834
0.0613538686517126
0.0567514150340396
0.0522599512385118
0.0485245836115153
0.0456034673392687
0.0430255548293177
0.040789337964498
0.038714395349888
0.0365471573710058
0.0345002314116068
0.0328614240570559
0.0314213701518277
0.0302451878641029
0.029164629897614
0.0278996588070448
0.0267225344106396
0.0255486909506484
0.0246957111960708
0.0241122541579574
0.0232413411615043
0.0223374537611293
0.0214732258311983
0.0208288703502919
0.02023191615614
0.0193547235577829
0.0186404065862021
0.018164050911476
0.0177305600619988
0.0171223546759293
0.0164586739203124
0.0159387711372161
0.0155487382655963
0.0151013227416398
0.0146633898383078
0.0143584830641774
0.0139295355488061
0.0137735356034069
0.0137349194037237
0.0134220227664947
0.0130637100276635
0.0127338857791621
0.0125291549873372
0.012083540786235
0.0117491707979896
0.0118238786830105
0.0117827742238223
0.0117412581715255
0.0116784703559448
0.0114830931518469
0.0114360896122831
0.0113852901359566
0.0111502841154386
0.0109628749374502
0.0108872616990459
0.010679848568996
0.0104781717837177
0.0105085726277143
0.0103949300450913
0.00996356030540132
0.00959362376450145
0.00952664371731345
0.00952172713938355
0.00941091690604201
0.00934021423285342
0.00925096967414734
0.00925442733402932
0.00909462719205372
0.00891954141642227
0.00901851773037283
0.00883868381828599
0.00857697277606258
0.00863355048539457
0.00870446714195839
0.00866613827564868
0.00864093160433888
0.00856737503830145
0.00851296936576677
0.00865732010188086
0.00879928070494125
0.00879289918217459
0.00872688195935511
0.00860584014039541
0.00830441860013579
0.00828668793360899
0.00846798981032006
0.00829797527300997
0.00820641981569509
0.00838675683072087
0.00842444705231467
0.00850133893185313
0.00867839803221575
0.00877128602975564
0.00885402388957964
0.00897337853581855
0.00895522879461165
0.00879475089223011
0.00879245697444647
0.00897682498670267
0.00888492457203567
0.0086324024849586
0.00849633436633576
0.00855477459012595
0.00882498316583246
0.00890512698672737
0.00869569356804283
0.00852225994303005
0.00845795551408823
0.00852616006337402
0.00836074917297906
0.00822114164120875
0.00814494228234676
0.00784748266189547
0.00797483392299001
0.00812351374609412
0.0076414329024181
0.00724756680294845
0.00701088474043301
0.00698193360197526
0.00689678693027598
0.00669467763122048
0.00667745295686843
0.00697288055202926
0.00714680654983092
0.00700528747856481
0.00714027725898634
0.00688192075641857
0.00634070258240945
0.00626756045049947
0.00598390608442698
0.00551962431250397
0.00541503503009721
0.00575629041149959
0.00604022148422406
0.00549863575516255
0.00531208224483908
0.00573108761060156
0.0056599342474018
0.00547613106985986
0.00510918698676584
0.00480980890922949
0.00531919913489921
0.00519346926473475
0.00495141022526616
0.00548345834639003
0.00548926047642647
0.00502908493500579
0.00489247591660378
0.00515694889377884
0.0049325870240804
0.00454337256945066
0.00469531263878048
0.00493636335382932
0.00476164796362496
0.00482171839326209
0.00469588408043018
0.0042374537848941
0.00420201877892438
0.00450544895063321
0.00487512417255379
0.00434745383346822
0.00373854123440711
0.00393057778419277
0.0038824779838771
0.00378910290076729
0.00427778273881913
0.00430756239485212
0.00411053232944355
0.00451302759540436
0.00436628475491398
0.00412605959392965
0.00454443531474571
0.00409895598384072
0.00358739656034286
0.00401257250367436
0.00436613375372426
0.0039687238894252
0.00365865097893847
0.0037959023629338
0.00417701538688841
0.00453372309450587
0.00424957666434838
0.00433608302160198
0.00460540628367645
0.00409962279531836
0.00355709975996351
0.00383067252349721
0.00437141830021731
0.00414881495671556
0.00341516392350919
0.00337636653507265
0.00355127747260267
0.00359444961737164
0.00383503829341522
0.00410600088952211
0.00412602287834956
0.00382507908929248
0.00343314054255737
0.00360763232356939
0.00380516700793976
0.00399007238205827
0.00410301048284951
0.00392570548313446
0.00399054772783786
0.00421604622909474
0.00409101959403826
0.00389607196943474
0.00381886444783695
0.00332410115406103
0.00322393060790675
0.0035630385707126
0.00359709486585944
0.00383565574157512
0.00376474254881026
0.00406475873911032
0.00438803837660986
0.00373760519778619
0.00335461621193982
0.00359595770573546
0.00341225086189872
0.00336613556362679
0.00363154681316095
0.00372623496178648
0.00346061948332478
0.00368576849976208
0.00343378621978534
0.00311271155287888
0.00358901968447137
0.00364773251376779
0.00339275741627401
0.00345692939365821
0.00343334132872577
0.00338750394524554
0.00350624689764214
0.00348741334332717
0.00335811701382205
0.00341856572299663
0.00368157935929559
0.00373070296886831
0.00353179401023756
0.00353925314633056
0.00359885168403914
0.00389249071635519
0.00392829929885549
0.00378160151667959
0.00376388348647709
0.00369612204631381
0.00369192494958801
0.00362010256813161
0.00359026866714799
0.00366534730705991
0.00299023117295022
0.00280867739163735
0.00348466607245295
0.00330304962357393
0.00315819086681914
0.00341954125624312
0.00334808728204479
0.00324509377184928
0.00356788415075258
0.00385993832088182
0.00407613565250774
0.00426543396819881
0.00443480283995478
0.00447942825466481
0.00422166688269908
0.00391041421009223
0.00377519664562181
0.00392928349649058
0.00440906801122256
0.00445928175965438
0.00458360257178636
0.00507247631658972
0.00532408916004712
0.00522534650444287
0.0048327242345839
0.00471995861989115
0.00466536011916256
0.00485435807959002
0.00487015528046833
0.00411288040515905
0.00384814088084473
0.0043982728148076
0.00443434337408975
0.00422666334687596
0.00436013377027685
0.00440460245808552
0.00454253505992999
0.00435709897059801
0.00449229053126042
0.00484063479335579
0.00522335091853491
0.00485507776186909
0.00446051160980212
0.00421424238749288
0.00455927150316333
0.00486614991400996
0.00444606341457221
0.00448823478436514
0.00467681865312638
0.0036379335626802
0.00322347964419747
0.00448119182453186
0.00493414312406072
0.00338590391218399
0.00249408475329521
0.00309777885194813
0.00381239152495684
0.00416561696561011
0.00312803933299129
0.00288496820100642
0.00304605272456783
0.00220647303149864
0.00291437789478592
0.0038712364424505
0.00400518446127249
0.00395833883139631
0.00404260139229514
0.00346761651163018
0.00192062072765574
0.00162848891283455
0.00139700148454363
0.00173196409179438
0.00318674298504069
0.0035290951460958
0.00389804246102257
0.00424990605131292
0.00410676558147198
0.00275657885476132
0.00200339904972244
0.002831389186278
0.00311205433870115
0.00210290515721703
0.00162393393927644
0.00246634480387549
0.00291992936175171
0.0017039407022336
0.00160577344701118
0.000658883979974635
-0.000271274775951994
0.00183280980840764
0.00388194454065656
0.0039324405126856
0.00299507239580331
0.00176970657869822
0.00239426663443944
0.0041547090376289
0.00395622852086169
0.00245357568307556
0.0018406146744043
0.00281340398069924
0.00357028924217523
0.000903581932846198
3.85189923089309E-05
0.00161564259538148
0.00188249511786687
0.00178334282662742
0.00239054240472432
0.0031671692882231
0.00422070581785122
0.00402840536899952
0.0023453802987759
-0.00247227792120996
-0.00257352905832702
-0.000146674599599831
0.000836394523203502
0.000709974875188264
-1.11465077468113E-05
0.000807549715173565
0.00184354643290405
0.000541058643870722
-0.000124418581517605
0.000355863762403931
0.000340571332768659
0.00176553923488918
0.0025189440150797
0.00156393237962727
0.000987450877194835
0.00137465573356991
0.00246345329546319
0.00319518878015941
0.00283551539763084
0.00118614060295919
0.000752277482714144
0.0015021835406254
0.00256972449979588
0.00327570112814108
0.00353397251091621
0.0030346809799156
0.00256627756129689
0.00265000198542948
0.00291592825054988
0.00222585819990079
0.00204636351918999
0.00201492789097888
0.00184972391281933
0.00195220427882451
0.00230756911979315
0.00271879669139633
0.00314890317131559
0.00320749153202199
0.00313385976298845
0.00292351552885908
0.00269103718855748
0.00400508875600612
0.0052739176947564
0.00494287664897645
0.003279203915442
0.00177995061632097
0.00171874073248849
0.0024989062046679
0.00308441740275404
0.00310296122034358
0.0037300552791437
0.00324236386531583
0.00189236037557333
0.00125096941476712
0.00241982982496708
0.00392373599235539
0.00419920533571229
0.00310502366143675
0.00241701327969686
0.00218080559568745
0.0018202525417479
0.00309073456899235
0.00305364268143705
0.00288447036462352
0.00316804081359157
0.00276537200328524
0.00162103417896998
0.00182168926477669
0.00321133326268768
0.00425617462201301
0.00262384007279051
0.000824961187537776
0.0024469038997202
0.00274480535317247
0.00304525957938773
0.00421530835863817
0.00346773546885327
0.00349456959749291
0.00301918757911532
0.00214888887929196
0.00214489077437989
0.00313968929180134
0.00254162023849448
0.00182140764590546
0.00186068510337169
0.003133003022486
0.00464675201600887
0.0041870257904687
0.00322229190476291
0.00302519027399711
0.00176390619781922
-1.23921949620868E-05
0.00067876474220344
0.00320199814825874
0.00439978184084668
0.0037241973718656
0.00290024270446399
0.00217533317638654
0.00248892508010556
0.0036491150034309
0.00411827245007002
0.00407512643160739
0.00292961938366046
0.00200053253220531
0.00256569512872656
0.00285127913142372
0.00185226958330486
0.00172870211002268
0.00251470012184547
0.00303859364571122
0.00300563311889592
0.00326102550337919
0.00326954820191445
0.00206994548057757
0.000977905403401605
0.00168467257267323
0.00270326366959172
0.00279055526465632
0.00270193463872419
0.00269246621263508
0.0031088287272763
0.0031600448288469
0.00304382420477386
0.00325397428759368
0.00357399331007238
0.00323599795217022
0.00302170594889957
0.00348585680423722
0.00370885172613986
0.00337147982801801
0.0031097982755202
0.00313929026430334
0.00355188097862138
0.00357950700359439
0.00370318095528982
0.00414856141036363
0.00403513991267334
0.00365765580424701
0.00367994859730953
0.00371079942081159
0.00385096288905983
0.00391862015585145
0.00345616840144234
0.00343009633229312
0.00367782202104024
0.00377919893172343
0.00393878541764608
0.00371747271852296
0.0035783202386103
0.00387428352683724
0.00382972611492589
0.00316197849967366
0.00317656170893819
0.00371007664472745
0.00370673230727968
0.00344716218658684
0.00334556017251509
0.00366611229292071
0.00397109767377241
0.00408265722405797
0.00411995904504273
0.00366269667103306
0.0035049324212473
0.00376552759112135
0.00355513036246913
0.0035271143830054
0.00400248338681801
0.00425273660893759
0.00410685743031987
0.00373678087229321
0.00350450005354695
0.00325540916665993
0.00306112879026623
0.00379673026865253
0.0043854902812416
0.00406023211928319
0.00372212754152676
0.00338756213719716
0.00331601153080917
0.00351718984534184
0.00369994566336623
0.00362178857582443
0.00356583536406503
0.00367405043336137
0.00408743071161217
0.004378705072862
0.00425191623487152
0.00409707907363354
0.00405388313903275
0.0041857894658204
0.00416948650496579
0.00413435118997843
0.00435122936898094
0.00459302481688987
0.00452701856580576
0.00440602641514807
0.00436812445243146
0.00398698793498847
0.00385449471328619
0.00430365725039947
0.00466472707866717
0.00451853692562869
0.00442221398325849
0.00443104604649297
0.00465474998068761
0.00490870221222176
0.00471760869793833
0.00418723252778167
0.00373626755623621
0.00404626407436913
0.00454320168351707
0.00470333137623383
0.00492279201050622
0.00482829938715836
0.00455048404103553
0.00472018324639719
0.00482835964767714
0.00484397253072693
0.00476317434417401
0.00441534955372119
0.0043697546798515
0.00483404831620878
0.00509088418955504
0.00482688398569529
0.00527180191296522
0.00605927593583155
0.00589642268706248
0.00552350460316802
0.00503944612287996
0.0048889041372327
0.00535220754197245
0.00544862550056376
0.00535747197843895
0.00596610830271274
0.00661923471801451
0.00658399607777929
0.00614974239793715
0.00570615132078192
0.00563915891811769
0.00583027869199288
0.00615600809828758
0.0063970694396566
0.00686967952684639
0.00731899498292497
0.00674881212527831
0.00682955950177651
0.00675519745780168
0.00628112457364967
0.00656578134750779
0.00678519009497726
0.00717677498690255
0.00822031512812849
0.00878127390789783
0.00807528019698949
0.00735047753000138
0.00702377688843964
0.00782690441329941
0.00843601367279001
0.00816872361749114
0.00853597060052125
0.00888703630348404
0.00873252065148121
0.00885394142545669
0.00908775419211127
0.00915709764865945
0.00899343530513706
0.00881975432579243
0.00957516255885788
0.0112223906745465
0.0111419048325578
0.00967804232962407
0.00974690773482994
0.00973403432275545
0.00948856224658892
0.00956777492984754
0.00964552917743694
0.00993002693361333
0.0106823320985254
0.0114170654555836
0.0106585472366979
0.00949314309396381
0.00919185477944088
0.00945296382233711
0.00954903940814033
0.00969291663140925
0.00964357226206973
0.00908896628967831
0.00912518764185028
0.00937912501825709
0.00901183756079563
0.00842094325992736
0.00798574252654753
0.00795594713899471
0.00813965987660126
0.00838499558777702
0.00834480081637977
0.00790823092314553
0.00778794573034017
0.00784017416881818
0.00779729893778097
0.00783423460945876
0.00775423059337262
0.00749645577774586
0.00747845021822439
0.00741552765850986
0.00726186076911758
0.00733484966920591
0.00745262565598779
0.00754923177248999
0.00802828002384743
0.00817940443779817
0.00731747319667161
0.00719163308400297
0.00752206877993798
0.00737542748428653
0.00722212748611463
0.0070312229547033
0.00692479331148202
0.00778370433038351
0.00888104839135868
0.00794232652357045
0.00705989812771322
0.00659705585866015
0.00676758692518068
0.00718457093897276
0.00704860906039391
0.00711503875816916
0.00743763740089195
0.00798155066532132
0.00857730194772539
0.0076442263654341
0.00670678438532967
0.00691594649977228
0.006941279542083
0.00669514043014976
0.00695400462051384
0.00720875738324258
0.00730516116056788
0.00735465670537569
0.00744929429737478
0.00723868946275014
0.00713547226342051
0.00719956441676122
0.00699455623236157
0.00691912699852406
0.00704659243210226
0.00758621101859086
0.00839767409404116
0.00771735224438459
0.00694439149838639
0.00689852689041844
0.00720696636216776
0.00778406962540159
0.00787323733092607
0.0076917422580838
0.00816164475511878
0.00868246460109818
0.00879999412682731
0.00879295052526361
0.00888924181181639
0.00926404203552242
0.0100905813172505
0.0112168370385159
0.0136710891609241
0.0221508853042801
0.0400533985089239
0.0593808611450881
0.0667206117385008
0.0689359746668241
0.0708142597756739
0.0717708181157693
0.0714033684481548
0.0675594469592332
0.0620225039234362
0.0547910800530203
0.0439698256868657
0.0376031729553014
0.0340082821641148
0.0318691695201172
0.0299141107193219
0.027375061518714
0.0257041950064164
0.0247700399335777
0.0242590609903678
0.0245369955706362
0.0239355023291363
0.0211726374646232
0.0195078006267089
0.0189024762836242
0.0177880099854884
0.016252604475705
0.0153863756505372
0.01461159481937
0.0142139300818361
0.0144198337390606
0.0134186179107753
0.0121361575306367
0.011658013299077
0.0117452504772995
0.0116706574980488
0.0114338757458603
0.011542776507933
0.011500603475826
0.0108866031031729
0.0107931546362513
0.0110076517501309
0.0107492388158514
0.0106929153442113
0.0103863880570764
0.00991874576320317
0.00993695195535985
0.0102603539538039
0.010374727840413
0.0103197186801585
0.0107190101228921
0.0118697576504524
0.0133888605755316
0.0143160363247689
0.0145856549000826
0.0142030346077987
0.0139030040917285
0.0140865392539512
0.0142417742179323
0.0141755188892083
0.0141374272522743
0.0136708147130855
0.0128899911114739
0.0124208168476711
0.012438228463766
0.0125156825455938
0.0124935709553654
0.0125981107454747
0.0126522871045416
0.0123908741078973
0.0120803359362365
0.0119141934389275
0.0118178527300384
0.0116717866527065
0.0112636195555072
0.010731387229744
0.0103618858031068
0.0102019961483727
0.0101081744930555
0.00994735823297243
0.00993040575934308
0.0100319372453316
0.0100831689809823
0.0101468421171309
0.0103914598432305
0.0106194800481002
0.0106364404170871
0.0108260525661194
0.0109470026852542
0.0110549072486825
0.0113914783489439
0.011634417192273
0.0115671533613304
0.0113760431143913
0.0113380735124012
0.0114838852794247
0.0115591120032644
0.011549747788243
0.0113875689878543
0.0112130414160289
0.0111072916386119
0.0108907259043793
0.0107266454756591
0.0106451181199456
0.0105678183877111
0.0105593117061706
0.0105622354329806
0.0105019103266969
0.0104103108039103
0.010394499498011
0.0104403558034261
0.0104104354228426
0.0104641399580825
0.0105377383883799
0.0105418612459739
0.0105031614703173
0.0104717665592749
0.0103402854777483
0.0103503806873287
0.0103678012985023
0.0102793845295722
0.0103223274379865
0.0104163899221528
0.010454539401785
0.0104352138928147
0.0103881716185372
0.0104029030114792
0.0104308674729313
0.010470399769742
0.0104569169888617
0.0105078266552017
0.0106105956033507
0.01060311197632
0.0105643087455799
0.0106728861624565
0.0108034346325699
0.0108106206239288
0.0108169210740779
0.0109369898049201
0.0111512854036813
0.0114627386378497
0.0116767457012973
0.0117679940654392
0.0119549032268505
0.0122507462715741
0.012502408095388
0.0126358231458463
0.0127966101492549
0.0131427289301383
0.0134819916921216
0.0137408748856938
0.0139717165822618
0.0142872666077771
0.0145658537950985
0.0149139550031035
0.0152883553451505
0.0157072302772824
0.0160598550296591
0.0164005693460667
0.0168481671639534
0.0171625278351603
0.0174025042231697
0.0176382861728992
0.0179000408535821
0.0182277853218659
0.0186250701181752
0.0190882660473895
0.0195996350336559
0.0199088367125304
0.0200051679647832
0.0201819890718199
0.0205305886653117
0.0209939472613829
0.0215810724928768
0.0222180454585395
0.0228089688691682
0.0233330499927753
0.023949333264303
0.0246929413899319
0.0253441526923133
0.0260098875117949
0.0268682081735773
0.0277738708795857
0.0287221962571217
0.0296398254211315
0.0305346145452925
0.0316239705420402
0.0326558665760599
0.0336756842676867
0.0348923919061484
0.0362009000666367
0.0375846414942322
0.038953227026736
0.0404153851998068
0.0419181336669799
0.0431623702357561
0.0443070922052622
0.0454750047314723
0.0465243478690404
0.047565100353967
0.0484694874943039
0.04926159042963
0.0501549470447185
0.0511357454831989
0.0519976206521063
0.0529785337295478
0.0539614391737003
0.0549098406646004
0.0559000139994561
0.056765833416191
0.0577272063056201
0.0587812630178033
0.0597964956824645
0.0607764977726449
0.0618158230854745
0.0628552973860235
0.063917206685777
0.0648794423669347
0.0657771610311333
0.0668579868227317
0.0681228934258064
0.0694078031889279
0.0706270632574761
0.0719261196096142
0.0731164449621874
0.0742915523477758
0.0756795967165412
0.0770787830851768
0.0784731592008272
0.0800421320251195
0.0818395298297926
0.0836480659818351
0.0854856825355714
0.0873944267935294
0.089088901933781
0.0907970355079815
0.0925428234866131
0.0941205973199464
0.0953188494754187
0.0962390180439452
0.0968697700817699
0.0971698773512821
0.0971691696186064
0.0970166734684398
0.0966693861746231
0.09640172971012
0.096303168035676
0.0961360115009994
0.0960768774542306
0.0958169031842267
0.095412805249561
0.0951080398778832
0.0945533981666567
0.093590361394824
0.0924124582305499
0.0910140946708512
0.0893825211475347
0.0875274936195739
0.0855863163178398
0.0834288526423187
0.0812720509618685
0.0792593877986079
0.0770724496182168
0.0748263007149233
0.072658117993221
0.0702320422196043
0.0676436610022737
0.0651175368573846
0.0627541908240266
0.0604839187132989
0.0582289918676848
0.055906692774108
0.05368875334085
0.0516273119275668
0.0498267092569026
0.0482734863420087
0.0466705138959744
0.0451561694071779
0.043764400841442
0.0425163895917978
0.0413844982465991
0.04049199349473
0.039818173408059
0.0390844257001202
0.0386266451213216
0.0382024513588043
0.03777089199001
0.0375890387450831
0.0372883396646894
0.0369276369521059
0.0365891617360646
0.0362513692071003
0.0356653615128591
0.0351231828696635
0.0346562863105699
0.0341885836967185
0.0340236345449199
0.0338689486661155
0.0334711824545773
0.0335697564244454
0.0337518399428363
0.0336670000983244
0.0336086424549544
0.0333353056758857
0.0327175234550018
0.0318517806568792
0.0307594061342601
0.0295282757747073
0.0282938168387601
0.0271907168440241
0.026385674448792
0.025722174023732
0.0247820482205838
0.0243145275854998
0.0241061858768778
0.0237859600578417
0.0235679253234246
0.0234542358182046
0.0231428676648288
0.0226048757130469
0.0224193700287206
0.0226678811648209
0.0227649891217758
0.0226765321920645
0.0222925288840347
0.0215936704292257
0.0210663804538971
0.0204752236737521
0.0197719997906104
0.0192050064921095
0.0187378941649121
0.0182465065686029
0.0178139131938922
0.0174509570458417
0.0170241725016768
0.0167066367590513
0.0167185626941249
0.0163164643249786
0.0159982446842127
0.0163080181178581
0.0166053474426558
0.0169234140003485
0.0173092379354234
0.0178209439205499
0.0181009083514556
0.0178620860220089
0.0181414959335007
0.0187439603228358
0.018441447406357
0.0182096469400101
0.0184129842254379
0.018370429915685
0.0181807773305693
0.0179136390147063
0.0174331340621627
0.0173925008020751
0.0177257711993518
0.0181959538341259
0.0185526621130071
0.0190082347650392
0.0196831044131462
0.0203923057714023
0.0211523047420081
0.0215944362514883
0.0218536973490399
0.0217831473383696
0.020766879617884
0.0201555170235147
0.0201957934795312
0.0204394152662936
0.0202769479696063
0.0207617997276065
0.0219043424307275
0.0222168404097066
0.0217829013087144
0.0215421676881338
0.0214749419747766
0.0209359329446728
0.0207632880054539
0.0208073621551157
0.0209356135084052
0.0211710794134981
0.0214625800506549
0.0217455284183394
0.0222182682359673
0.0223181273428267
0.0218518575652332
0.0223688381469396
0.0228452304006554
0.0223324291259023
0.0216292954619403
0.0217917957992327
0.0224672145489077
0.0230254243484669
0.0232053171674841
0.0228448389342661
0.0226069381931679
0.0237986088888723
0.0281287916323019
0.0369850374953779
0.0466952204442663
0.0499530124982457
0.0491714647388982
0.0514637859710918
0.058796820004747
0.0743328018854922
0.0933632118625925
0.100645725421769
0.0921875850253862
0.0749770474153806
0.0587445950695497
0.0487734833141169
0.0424633288225447
0.03834754540368
0.0356435044581377
0.0337421942672112
0.0328392156847012
0.0320702688928324
0.0312052186404222
0.031200287779398
0.0314475484316336
0.0297250006997765
0.0268598278894393
0.0257629480828998
0.026271438570582
0.0267176780966551
0.0270975628374527
0.0263171243161348
0.0244498737186304
0.0241461793792925
0.0246168010308737
0.0244785832161654
0.0247993906236805
0.0243895047588812
0.0220081065195279
0.0219774456821188
0.0261978485243593
0.0282981973724754
0.02517785568223
0.0225721621880171
0.0227579037889798
0.0254448006154528
0.0261665260584422
0.0228258325447436
