1798
3999.43349933624
650.420452594757
1
2
4
0.00852711575374512
0.00912695797754574
0.00934291526161859
0.00919700452335319
0.00917454770544766
0.00915217061800303
0.00912484434145057
0.00906068773326045
0.00855744276959663
0.00862234804323992
0.0088646390828861
0.0087916226905124
0.00907212098323979
0.00919689751261539
0.00905454717359013
0.00916100542335511
0.00936691080511056
0.00926369103315105
0.00903143417388899
0.00931779648236327
0.00969837165291572
0.00955265062902407
0.00909876966289606
0.00920685250166276
0.00931935084339724
0.00918067518454825
0.0090322735240459
0.00895851807394123
0.00923408619314905
0.00942839824016371
0.00896814705844601
0.00850842450881026
0.00858720404048824
0.00877709402689907
0.00859824894241424
0.00905581352826318
0.00885298534897677
0.008454840759434
0.00868429847020102
0.00885796798681185
0.00892941025053109
0.00898820366877635
0.00847826454395279
0.00831789221244348
0.00881222214348002
0.00886507363979623
0.00865875015653727
0.00895252644516055
0.00887949344151711
0.00906505280493186
0.00896381496534887
0.00850122053249777
0.00880243062420144
0.00845023172771439
0.0081177691750325
0.00844056984876707
0.00867993921019571
0.0087674610875412
0.00835196908444564
0.00855966181992231
0.00904557905830071
0.00895331915363005
0.00859634794247391
0.00826205156872943
0.00811232498950519
0.00838882965328154
0.00849570755086491
0.00854415633380927
0.00865717475011151
0.00893318395314699
0.0089547616509274
0.00891849092506211
0.00907964160268977
0.00874818372403564
0.00846883917395984
0.00837223992259573
0.00878216143749893
0.00902919925209589
0.00823972942335898
0.00827589929483564
0.0082736561200556
0.0079868349040105
0.00799399773941425
0.00802936528780225
0.00826844241189665
0.00875332347251157
0.00869118101256603
0.00822101942540349
0.00825505394636552
0.00837391240575875
0.00878749401563009
0.00874504520771899
0.00866858895844727
0.00842751462162566
0.008797652343378
0.00880319104675017
0.00781205818115038
0.00802269759196302
0.00876842759009393
0.00861784271745367
0.00887461498923273
0.00935103633264738
0.00883450833526416
0.00818027534521795
0.0084721310973117
0.00866930429908203
0.00808508357951397
0.00760811080576848
0.00820308944817154
0.00862060956843594
0.00857317416826949
0.00812360508137045
0.00812092352471
0.00858577929485473
0.00860035608619715
0.00848978680520287
0.00889177035641614
0.00877339914904583
0.00832336840553304
0.00829926863925391
0.0085929967711557
0.00880057305923121
0.00829098493701013
0.00790128926052114
0.00825794293675523
0.00837759841715047
0.0084690939091502
0.00887198817980372
0.00819016373263908
0.00746085109188252
0.00749594266390117
0.00828331856897251
0.00897609774822212
0.00873230551400695
0.00807703892986183
0.00791934169985062
0.00712605610117152
0.00706332076455589
0.00764893895967449
0.0078740741914535
0.00744510818907276
0.00788592672498364
0.00805658894914249
0.00753998523008452
0.00812301174968433
0.00799734556893409
0.00737500070114746
0.00730669538046696
0.00774070878221308
0.00760407055693109
0.00743532741032321
0.0076892155939177
0.00835407700676918
0.00903771347261258
0.00841928715796182
0.00782859595677424
0.00850059094694176
0.00911912169052902
0.00920270997753948
0.0091864097349655
0.00927389277234225
0.00950110176738499
0.00997600453103499
0.0100940593386704
0.00977815520019425
0.0102361393700567
0.0104399670483856
0.00930176786064172
0.00888241015885795
0.00912715271774549
0.00980669610738196
0.010400783967228
0.0107955786226996
0.0105578134407762
0.00931100481637516
0.0101210748989323
0.0105317186776636
0.00985916582775885
0.00989424486064963
0.0103449515976271
0.0110103494239679
0.0108899140187367
0.0103578207955811
0.0110517201996699
0.0121749702392934
0.0129174839299464
0.0126723105530706
0.0122154653376135
0.0118996061843993
0.0119226440694396
0.0129465617446305
0.0128207109761427
0.0130882020662483
0.0143376800460395
0.0155467591393169
0.0155458304506659
0.0145782315158597
0.0151339956576411
0.0151880012565285
0.0146302920287521
0.0154250238846208
0.0160041059807332
0.0164508448688864
0.0167842658744826
0.0163252815444555
0.0169190682618834
0.0168340837451723
0.0163505650314598
0.0170917395991465
0.0173921815674937
0.0165731827230408
0.0167491795296255
0.0165967734683586
0.016418662942947
0.0172974988562291
0.0184464198389942
0.0178618032019785
0.0171267439347673
0.0171373686372008
0.0179028450729137
0.0181020082184699
0.0181707744052279
0.018002180446133
0.0170392409645893
0.0165990808856886
0.0178663393044124
0.0182146289487093
0.0181040548624524
0.0184125160757862
0.0187497118677463
0.0195377885694115
0.0195179090027524
0.0188733330831151
0.0183128967959115
0.018518975531356
0.0190693535953927
0.019984385480753
0.0210850351818311
0.02086681557501
0.0195001672584305
0.0182326135066745
0.018399112571019
0.0194213332231778
0.0199451670705476
0.0200189612776801
0.0202437912131938
0.0203681647840176
0.0199116543645457
0.020007531740587
0.0206190004970591
0.0207638715366616
0.0212349604616253
0.0209168333325704
0.0199699259087747
0.01994185513145
0.0196605036880721
0.0205282507267274
0.0217299741372919
0.0216913977109502
0.0210888434287648
0.020373116325126
0.0212824990685088
0.0224643351198488
0.0231558756404983
0.0222878301695993
0.0215628127219853
0.0226914649674181
0.0238871515234482
0.0234062580889867
0.0225630530610484
0.0221879152155554
0.02181028967191
0.0213959298827417
0.0214876126063619
0.0225959900129541
0.0239242618466033
0.0243205871462598
0.0239082423493951
0.0235286394173593
0.0233375995431357
0.0237110676683232
0.0244335425996894
0.0245349930323311
0.0244923353823507
0.0246169314701766
0.0250475138421496
0.0240141314052077
0.023975284337132
0.0258531461921674
0.0252548732414127
0.02446238659637
0.0247448720687444
0.0246612140639033
0.0248259498202997
0.0255101555039767
0.0257971862538335
0.0256545974904919
0.0258475945650641
0.0253856735065027
0.0253914937897577
0.0265049367818045
0.0269822106676985
0.0263109064149386
0.0258779603560924
0.0266121053691008
0.0269901586092253
0.0266808537009192
0.0259920845969661
0.0255532848799889
0.0252255408582716
0.0250772820601997
0.0262104483728073
0.0275230357080542
0.0275375940143651
0.0262056293993528
0.0256862645840303
0.0261875182109788
0.0265972013988567
0.026737548637003
0.0270231186287391
0.0268896541395021
0.0263127792986274
0.0268939539488876
0.0277012979003394
0.026970793409623
0.026559898332402
0.0269988025967619
0.0275897252031735
0.0277243056259746
0.0274665238261899
0.0277417606440729
0.0271192585124869
0.0263649324978645
0.0269739146141122
0.027638926706602
0.0274385587833433
0.0274987466959211
0.0277474080901597
0.0279301790275945
0.0279977877979849
0.0275838245801691
0.0273612835249251
0.027895261806607
0.0280571023415941
0.028312637900115
0.028501948918835
0.0283422783733678
0.0279376778386639
0.0278820138733934
0.0281801913458662
0.027745440465703
0.0275270966635155
0.0280871544392228
0.0283589520880899
0.0280255715458024
0.0281980110911167
0.0287647824280509
0.028563689048765
0.0280810408140346
0.0288423651702155
0.028889096816591
0.0280894605382646
0.028136127581903
0.0284438011040813
0.0283904092435645
0.0282428246285164
0.0285155372333084
0.0288828045404995
0.0290733339070388
0.0287077276319048
0.0282909042137654
0.0290419062950203
0.0290983174187337
0.0282176062050096
0.028548104402219
0.0292263658390114
0.0285897873225888
0.0282250966490074
0.0291857631146913
0.0295154397164257
0.0286821553569266
0.028765211134444
0.0295043534579453
0.0294986884460341
0.0291936342091367
0.0289373348077204
0.0290183831831221
0.0291758525685008
0.0292405448711261
0.0294325494402746
0.0291478678764921
0.0283910339624905
0.0278875242556424
0.0286020421078198
0.0291936406505926
0.0288951332580915
0.0291117809391503
0.0294947635328029
0.0291260797616527
0.0287023744707192
0.028691400174444
0.0286096489408826
0.0283508249035239
0.0283414546763051
0.0282517737969658
0.0278694247079646
0.0275147439142412
0.0275070534915179
0.0276425326764786
0.0279121810390734
0.0282338420823678
0.0282767278722211
0.0277392737006605
0.0273943324582342
0.0276691395640966
0.0278588215796816
0.0278117058970116
0.0271195121524678
0.0266529221323492
0.0271077610027703
0.0276875075587617
0.0277652983310332
0.0268869700122722
0.0262674767421483
0.0267218173325528
0.0268675786492036
0.026612440661434
0.0266264145268714
0.0263692427362132
0.0261560969698644
0.0265077920352215
0.0265730663794031
0.026630960488288
0.026513955738262
0.0259771398383539
0.0257247639769617
0.0256947157783442
0.0257750873226292
0.0254315109019838
0.0252193612581136
0.0256736059519928
0.0261086486131899
0.0258270081740347
0.0254861828580899
0.0253860286997339
0.0254045810197062
0.025347898985224
0.024611544382718
0.024027327043684
0.0243164374237177
0.0250167227365102
0.0251516909152564
0.0247761385857623
0.0245114080242669
0.024285051590076
0.0243274276628268
0.0238858676479501
0.0235580240670917
0.0240728610107315
0.0242222112215348
0.0241620469145808
0.0239355378850886
0.0238287437687182
0.0240373252013669
0.0237414407608772
0.0234306193528434
0.0231621169122872
0.0233264456323957
0.0233462836196304
0.0228135258660533
0.0226255453640842
0.022696686140565
0.0230515424978609
0.0233586171388121
0.0231839203868685
0.0226360512324585
0.0225782401911469
0.0229964773643236
0.0227467936562588
0.0224746088368909
0.0226225575566873
0.0224290374604332
0.0222888220475307
0.0225141660161146
0.0226475086313295
0.0223983310277829
0.022190679667994
0.0221249630057646
0.0217947617879984
0.0216367768519322
0.0218111689797822
0.0215852532584721
0.0215153034086152
0.0216896410240494
0.0211887536617894
0.0210932731740838
0.0213889972399718
0.0211458095542308
0.0211356122547914
0.0212838003325003
0.0211411297447027
0.0209788882682474
0.0208651094328252
0.0210399400893557
0.0209300421935566
0.0203140296084022
0.0201577669496439
0.0203655254591713
0.020498538496493
0.0203229413099876
0.0201306304536445
0.0202844134903679
0.0201662252103946
0.0196696415019895
0.0193978500292663
0.0193419154703101
0.0195160623146067
0.0199744260005366
0.0198854645144016
0.0193105775430742
0.0188580684565925
0.0189746066885001
0.019543485344082
0.0190989499289607
0.0182760521739448
0.0184459329078559
0.0188600057603721
0.0188948263274566
0.0186669198178794
0.0184398041704177
0.0180935257906236
0.0178646813382007
0.0178826598436463
0.017955390844094
0.0181530687845211
0.0182517462864884
0.01827014498282
0.0180127830706346
0.0176721071783272
0.017879232050408
0.0181454956015434
0.0180767032843141
0.0180058628804707
0.0178153304027682
0.0178256211807243
0.0179736784144659
0.0179249301253368
0.0178463626011976
0.0179784766633832
0.0181848688684204
0.0180704851707506
0.0177938581022506
0.0180566864520727
0.0181846673322195
0.0178616973505341
0.0177824156949966
0.0179200999806283
0.0181188726319432
0.0181725038719803
0.0180475542327337
0.0180018437838705
0.0179622089184527
0.0180419833216698
0.0184212927521466
0.0184210166379543
0.0179953462268222
0.0177989234251769
0.0177454045455196
0.0181404378543205
0.0184719629589998
0.018361190536849
0.0184878860434476
0.018795281127204
0.0184938175087945
0.0180738230168896
0.0181704183526894
0.0185709773447076
0.0188085472153486
0.0183868337398973
0.018241319997402
0.0186697367849228
0.018855691908269
0.0184939362964203
0.0179412028068564
0.0179394433362395
0.0180066739331711
0.0179432893413939
0.0179232682270924
0.0178545373659893
0.0174988372554615
0.0172566232603671
0.0175896740410801
0.0175320061186776
0.016968551923681
0.0169074109432674
0.0170480966944245
0.0171682838428061
0.0171359707922106
0.0170209128597454
0.0169269647834297
0.0168189026096617
0.0168556569611501
0.0170198016708476
0.0170334194938984
0.0169601894959757
0.0169401959974202
0.0168910601232439
0.0167076471481235
0.0167526666635055
0.0169581483921189
0.0167034492399786
0.0164450261891257
0.0165431794780756
0.0165362771292807
0.0164886912442665
0.016583381309381
0.0167346820095344
0.0168719106829958
0.0167939937018034
0.0166946460975002
0.0166868313468442
0.0163238946328127
0.016081698738216
0.0161228944795189
0.016086742055875
0.0159370893543482
0.0160089369736349
0.0160041095614206
0.0156804859685033
0.0158303106163619
0.0159785480313672
0.0156045991659392
0.0155822206275513
0.0158013436830412
0.0155650754065256
0.0151746145242475
0.0150827689656066
0.0152696005989521
0.0153530358302744
0.0153494645894293
0.0153233249404336
0.0150162615861703
0.0147988348575745
0.0148751940415802
0.0151032180231483
0.0151514507317496
0.0150850696349972
0.015171458071576
0.015253343751229
0.0152743798304302
0.0152214596249598
0.0151028555696233
0.0149639852207804
0.0149744976661581
0.0150067320014638
0.0147720235546157
0.0146442461124858
0.0147092284309412
0.01473636904432
0.0146331199485819
0.0146221437612799
0.0146483754749628
0.0146205959561216
0.0146770488900408
0.014837405070735
0.014856858038357
0.0147790934895186
0.0147551755137249
0.0145402508826288
0.0140087217497472
0.0139353012620251
0.0142327693534444
0.0142737616042271
0.0140691405056233
0.0142692375171852
0.0143445385984532
0.0143100901522157
0.0142209509376907
0.0142007498870994
0.0143364551970462
0.0143576984465581
0.0142235346399681
0.014324413136073
0.0142408622422894
0.014045205907623
0.0140011288146776
0.0140482948856505
0.014086891048309
0.0139437985344024
0.013767026919166
0.0137425910804214
0.0138517057835251
0.0137093180164178
0.0138205336262577
0.0139025096546204
0.0137917436968259
0.0137809945663254
0.0136537327205558
0.0135236859784822
0.0136647720116437
0.0138782942344107
0.0138581768824025
0.0137747875648002
0.0136837184313146
0.0137985407655526
0.0138435194754406
0.0137567315940912
0.0133613747477558
0.0133101068266038
0.0135651030269813
0.0132814504102075
0.0132413211690966
0.013570100081596
0.0137326477163573
0.0134432240454393
0.0132218406404821
0.0134352223622353
0.0136140705706136
0.0132477878701558
0.0132518975878601
0.0137168193327221
0.0137651070474419
0.0136978184893706
0.0136035328685992
0.0137279639478613
0.0135659824520758
0.0133899330370306
0.0134776667393955
0.0135137516386298
0.0135301864583441
0.01348750138247
0.0132972558497903
0.0135463922283646
0.0136857852689251
0.0134412048071451
0.0131630795781461
0.0132417603189949
0.0132726236222811
0.0131517383539885
0.0129753834568149
0.0128269003231635
0.0129956604293507
0.0133938959561032
0.0132171007888848
0.0129566694922034
0.0129732636724721
0.0129264189276029
0.0125259640429574
0.0123822938427612
0.0125634358770537
0.0125964718608815
0.0125197334218123
0.0125373920492266
0.0126843468932095
0.0129001666637231
0.0128467664272649
0.0124414435206817
0.012153350134533
0.0123483314235333
0.0122378403449665
0.0118173990373195
0.0124151691352816
0.0125627371243302
0.011861177451193
0.0117794557621016
0.0117823560340909
0.0115746447563166
0.0116700973582249
0.0115384044998615
0.0116409313298746
0.0120414546079465
0.0120214784682238
0.0120182899647957
0.0122981588281136
0.0122463891727453
0.0113603300410869
0.0112601490673971
0.0116940970000716
0.0113690837955399
0.0110367956396683
0.0112921180979087
0.0113962592425353
0.0115290335642653
0.0116172372331535
0.011266316326933
0.0114485277544347
0.0117077176921678
0.0117067740409603
0.0113662002099096
0.0112571004555129
0.0112267432152573
0.0108785946862091
0.0107249530607562
0.0110516254367768
0.0109784196011218
0.0110202132508878
0.0117441625136962
0.0120268189484418
0.0118296991043136
0.0111918528155988
0.0111875612368342
0.0114877434366776
0.0112498890982599
0.0109792666957089
0.0113780613181427
0.0114383707014801
0.0109368315001008
0.0105585138490634
0.0111409967549437
0.0113006322212479
0.0111453420274883
0.0115008206729382
0.0118284707476233
0.0120527151952516
0.0119948543370085
0.0112826482259181
0.0106700985210246
0.0108716874277145
0.0111938541928509
0.0108708822471371
0.0105769327273117
0.0108731930244545
0.0112296697376813
0.0112273449824056
0.0109568370505216
0.0111891687599806
0.011335930036151
0.0110011534208737
0.0111413951223072
0.0115677552789456
0.0109566430252202
0.0111322245833026
0.0117178960548845
0.0112171214177897
0.0110867898933914
0.0112773868463569
0.0114264375903476
0.0112181148707781
0.0111348166764358
0.0112829549230702
0.0110436653656383
0.0105036843310559
0.0107328234479699
0.010957161998708
0.0100844807886512
0.00971479885396205
0.0102735240122405
0.0106809696306013
0.0108606639035266
0.0110241056404656
0.0109093095110817
0.0109464279676023
0.0112339830045852
0.0113367697447022
0.0111441777963752
0.0104572682631781
0.0104254633499513
0.0108545808264338
0.0104271022052143
0.00990672100796433
0.0103497273251737
0.0106313768378361
0.0106396182412859
0.0109945362510089
0.011216582370518
0.0110089772968431
0.010729779431587
0.0108872860346939
0.0113708421598008
0.0111034788560857
0.0106892078388941
0.0104568929333518
0.0103670764006801
0.0107168829035416
0.0113708419724967
0.011117642386249
0.0098752800274679
0.00960944201231243
0.0100854294128414
0.0104521616608052
0.0107468838993734
0.010637300916326
0.0104673523978655
0.0102242314524569
0.0102267215926044
0.0105009315700092
0.0110081199006372
0.0107775412722618
0.0104059935886749
0.0103584038097904
0.0105759741310555
0.0109811239549048
0.0108763017257683
0.010835358850177
0.0110202891845063
0.0107879966755883
0.010783889376481
0.0107459645749249
0.0112700992361811
0.0115918414749143
0.0112284409655865
0.0113540126387412
0.0117503214942513
0.0119368378242296
0.0118192507259803
0.0113439836468246
0.0112267505843296
0.0113191203246144
0.0113660900401859
0.0113959902511133
0.0111611099216703
0.0107082400359785
0.0108139774021217
0.0109975466296998
0.0106486945836811
0.0107463587487331
0.0111726207264297
0.0111773103343734
0.0109370853627944
0.0108627370628695
0.0112527847612549
0.0113069013918909
0.0106919121612822
0.0109002469905753
0.0110402718887199
0.0104663813421381
0.00945779842199435
0.00882375716008065
0.00847662381855415
0.00895976338882587
0.00970955892214911
0.0090804694020207
0.00885674943650674
0.00885192801291381
0.00901217719755909
0.0092841814128325
0.00987953865533244
0.00921408624309687
0.0080544584892457
0.00796201725945471
0.00801600939499928
0.00712004114783965
0.00667989409830372
0.00723390649930065
0.00792587101185128
0.00811656113386116
0.00793062435487548
0.00746564919039537
0.00781517921658858
0.0074340892571201
0.0075791333386385
0.00792330655765334
0.00803951201620442
0.00758453402190582
0.00688189142181411
0.00731271686563154
0.00793448842162683
0.00733190377173939
0.00604309628504578
0.00585496860196416
0.00642943738214434
0.00601756521259481
0.00627542732679627
0.00652058786197934
0.00646009852915995
0.00686533337188565
0.00643845969795849
0.00499163017919408
0.00534570715518184
0.00703612878972361
0.00847743639903227
0.00788878015465015
0.00716129921214178
0.00655844106361486
0.00564953948198679
0.00553871910844111
0.00522300047524395
0.00520083303841065
0.00541910102549377
0.00493771077056384
0.0025318213552461
0.00201131613757767
0.00367787523912641
0.00486481735608458
0.0066169217670156
0.00539559948080657
0.00329581447650211
0.00203827181041416
0.00212817331982504
0.0018163984073732
0.00220953812967603
0.00417923609867534
0.00385284519787049
0.00296263804988264
0.00429176043314728
0.00496516167763092
0.00505345344058259
0.00528483112787586
0.00521749322731112
0.00574759191930531
0.00629551048330005
0.00598150783526343
0.00613100866691385
0.00610946875564906
0.0062067528718739
0.00744866317947758
0.00870973704482225
0.00846927636768254
0.00761963237728365
0.00790738549060285
0.00844861447731962
0.0077434388053882
0.00723896511235733
0.00713418781951928
0.00699199208258314
0.00736764743056992
0.00744545896672681
0.0076837138582569
0.00809244661487979
0.00757042662353968
0.00746290866038205
0.00800393586734052
0.00837477170755796
0.00835949287570049
0.0083534227677856
0.00825816362571032
0.00830672528233082
0.00785437719516387
0.00711147557255481
0.0078541167723976
0.0090095350470844
0.00894749152466956
0.0079138870569137
0.00691916839448456
0.00634009535665583
0.00663624624719238
0.00745366349203547
0.00718348630047605
0.00740081355070232
0.00817151596199328
0.00685877932957632
0.00551667197462346
0.00650283786994865
0.00694476879132241
0.00563541092708876
0.00472222674912503
0.00463891859906477
0.00473442806577587
0.00473560118324324
0.00427951244613546
0.00468757494999788
0.00450932592743118
0.00375011389405487
0.00340773166202058
0.00320989697060009
0.00436708347524009
0.00585900152763298
0.00459394054842328
0.00351355657658312
0.00363150936521048
0.00340698880815613
0.00316661813543041
0.0021116875986729
0.0022688839101196
0.00305226196463134
0.003344675506408
0.00369731324137346
0.00282804423032852
0.00321546715709023
0.0047141386814774
0.00549955917150276
0.00454753853901312
0.00413539573269926
0.00493519345959173
0.00496607432854124
0.00590907250593146
0.0072697820493857
0.00620418760084828
0.00542704879593008
0.00575445656695551
0.0056766884338959
0.00533423597975077
0.00402416567355811
0.00378315717276299
0.00503725650118839
0.00381440715314967
0.00215441153964273
0.00287524242071223
0.00477677110750426
0.00521282592587151
0.00373337481945943
0.00348710114951179
0.00450644307087251
0.00491360580545629
0.00408330976633126
0.00273107629141916
0.00296114332918917
0.0048343289132686
0.0062883064853239
0.00672148451517515
0.00769178190109391
0.00823209630772491
0.00657038159990472
0.00553694567084544
0.00621785921177567
0.00640227116582689
0.00596668469361321
0.0064438671858331
0.00725360534164765
0.00709874023849173
0.00634284065463026
0.00661180635508971
0.0075528073759105
0.00761789808944206
0.00746928147355101
0.00726374643993533
0.00662635251849636
0.00705532725319525
0.00782044827660553
0.00809357792894357
0.00800258017616502
0.00776153154116937
0.00769195299477258
0.00763167626110709
0.00779340902443666
0.00794468283732754
0.00794482482103438
0.0080988916827818
0.00847904502444227
0.00854588888983894
0.00825599862711259
0.00799406926382431
0.00806401693862962
0.00847608345686538
0.00859192237261413
0.00822199025968547
0.00815933990292209
0.0083939389050613
0.0085300404792646
0.00845354719217767
0.00851171484450119
0.00865751941355393
0.0084174323216969
0.00834575526417032
0.00821486398934034
0.00811579249010312
0.00847953127536055
0.0084589073334109
0.00833101888479696
0.00842763705129874
0.00832347210010847
0.0083653287402286
0.00853492545932335
0.00871990401703072
0.00856898688275954
0.00845067693898742
0.00868531165917894
0.00848933927006222
0.00820335165366517
0.00815833287639857
0.00824949301982328
0.00842406374558528
0.00829004742771405
0.00812469314619551
0.00827094608887055
0.0082076954334742
0.00839273786234538
0.00856472002706491
0.00828021463156715
0.00823199351955234
0.00846172128339794
0.00849559033141908
0.008363899620561
0.00859421884317772
0.00888675593467768
0.00866754193838355
0.00845973777954545
0.00846836532828621
0.00844614185381097
0.00879417015508952
0.00901156152807035
0.00872976042587489
0.00862053808254778
0.00875062402881747
0.00888373688254768
0.00886913512578373
0.00876282433488307
0.00875672183754025
0.00886976558787789
0.0089679266573523
0.00915158726951269
0.00910797456836583
0.00887521131864536
0.009040423065353
0.0094202889366612
0.00953179204429031
0.00933022155487374
0.00922325888300361
0.0092180811283887
0.00923615076875366
0.00923219596306959
0.00937738169530449
0.00957011888987771
0.00952251507063378
0.00951715003177885
0.0100331096049757
0.0103649936294678
0.0103098021717813
0.0104432031750722
0.0106435716371437
0.0106434338141021
0.0107809632643809
0.011165780458917
0.0112431141605458
0.0114136816770857
0.0119989500923145
0.0119164468151577
0.0117048699875138
0.011946488204127
0.0121503045954419
0.0121462103463762
0.0123134335134489
0.0125927036440967
0.0129598197715287
0.0130958450419538
0.0131103483752725
0.0135080022342369
0.0139955239897232
0.0144848215392453
0.0151151478755269
0.0156130718192765
0.0161304428578482
0.0170532671263115
0.0180269406408795
0.0185983277676055
0.0195104028953814
0.0207812084331703
0.0224559724298897
0.0244293790701688
0.02643202135215
0.0283957730415463
0.0303522821207781
0.0321535279876051
0.0345172585870817
0.0375469183114764
0.0405005146204456
0.0429927455207008
0.0450389858854083
0.047330160960152
0.0496089096245296
0.051028353442657
0.0526196763077332
0.0547328865857984
0.0563947667238784
0.0576262094598234
0.058984375541245
0.0604652239300754
0.0624452842329468
0.0645298943619415
0.063431099488423
0.0629539457366614
0.0652433718031977
0.0657308580190394
0.0645907108698005
0.0648980908343802
0.0650542967369004
0.0648052385832693
0.0652286451418757
0.0645582862340936
0.0620900867939442
0.0617322473980585
0.0622971809156941
0.06197129692897
0.061367725155002
0.0612432688731432
0.0603295128175814
0.0593947109753456
0.0594674945864489
0.0586934592056949
0.0564929725212888
0.0551305750442105
0.0542945236325765
0.0531544474036996
0.0519297060258192
0.0505109361620424
0.0490879532975814
0.0474565599948304
0.0457919714092668
0.044486375946495
0.0433730259259181
0.0418352843890615
0.0403014259250201
0.0392733503042197
0.0382999325650495
0.0373708831712634
0.0367301543181749
0.0360992433190746
0.0352416401936499
0.0344667822440173
0.0345772681232599
0.0341286298335412
0.0323378553873103
0.0320593428235178
0.032240641566227
0.0316190753690834
0.0312027860735659
0.0309044783479175
0.0304049052871572
0.0310456738083663
0.0316933319944914
0.0295114650294095
0.0288541107579065
0.0291944767997654
0.0291708340415282
0.0293224278509252
0.0290544353943542
0.0291307239294235
0.0291121410620728
0.0289452300646893
0.0288499099563998
0.0274628593056733
0.0267501797029635
0.0272974429865486
0.0272895934850529
0.0266975763343177
0.0266393796962328
0.0265803404149669
0.026362872274709
0.0260993754885121
0.0259588583863762
0.0250387198354895
0.0245919840055575
0.0245211533027291
0.0240072345145659
0.0237646539270656
0.0237738465529307
0.0241972651252261
0.024447205099721
0.0226977287484081
0.0217871888923631
0.0220980045181675
0.0221127358618647
0.0217977954323746
0.0214005166439346
0.0208961470078546
0.0208538515310495
0.0208832131406131
0.0202453903466548
0.0196768701163135
0.0193937239951703
0.0193601243545173
0.019360169656935
0.019455340096305
0.0196487029338553
0.0198509472279992
0.0200705636139717
0.0196544820899533
0.0192133470785548
0.0196237663787717
0.0202471479839894
0.0203880623402835
0.0201556239026758
0.0203301060820031
0.0208218791571889
0.0210684735310459
0.0204219838047617
0.0205438814285733
0.0208547066616266
0.0211523077916947
0.0212373015658811
0.0211004160756352
0.0211095141693034
0.0209849013274283
0.0210369896574683
0.0215811295024478
0.0215677834394649
0.0211029792694791
0.0214299227692977
0.0216631813158788
0.0215386908502115
0.021577233149068
0.0217207546085324
0.0218248001609297
0.0222998191286941
0.0227967637492641
0.0224150890960987
0.022270872002517
0.0225711384912355
0.022714205485113
0.0226130275153267
0.0226516310018704
0.0228349104877829
0.022776358805832
0.0225803888249098
0.0228072175772176
0.0229224370060522
0.0228089045747554
0.0228025972860076
0.0226951280223638
0.0227078389307365
0.0229532061441658
0.0232461308554211
0.023098656922962
0.0229754380766248
0.023069805303664
0.0231901791804514
0.0232971510387379
0.0232815125168783
0.0234479431537006
0.0235830856214021
0.0236220389329269
0.0237706701986172
0.0239032267116599
0.0239268680775269
0.0239973626107941
0.0239044054660478
0.0236747217063236
0.0235915474795567
0.0235314926488415
0.0234958100333948
0.0234115724135085
0.0234266259654915
0.0233878002158645
0.023458309952675
0.0237161981251162
0.0240633166318968
0.0244269415101371
0.024843972329943
0.025603699943735
0.0265973627285382
0.0278602082166383
0.0295657142137431
0.0318353466627671
0.034799091976632
0.0385450194737198
0.0432851963164921
0.0488936902361408
0.0545494583245222
0.0584344446468239
0.0585850088796201
0.0548408720654441
0.0489901603980996
0.0431461023186871
0.0383443639896018
0.0344052998062119
0.0313362161024408
0.0288541964998251
0.0267025305691844
0.0250917985185564
0.02409660462324
0.0232400033846985
0.0225371440027971
0.0221160341541143
0.0216553284935674
0.0211707097919823
0.0209485959524951
0.0209759453140638
0.0208506298949286
0.0207382270452587
0.0206959777664158
0.0205834034789962
0.0204929178316622
0.0204148245502234
0.0203583941626041
0.0205207548555542
0.0204734122409138
0.020275598570928
0.0202469298890559
0.0203858131612649
0.0204059526763924
0.0202976781587593
0.0204413089504466
0.0206949347123114
0.0207309100838357
0.020597086097762
0.0205386979891018
0.0206581679729596
0.0208155109276979
0.0210132774704408
0.0210347849607443
0.0210631597022747
0.0211317719709339
0.0211025722465305
0.0211398764311841
0.0213029125867644
0.0214402274229891
0.0214870448391328
0.0215392232040562
0.0216474137507941
0.021724826458358
0.021778386579037
0.0219218807636675
0.0220755730066958
0.0222674674403161
0.0226556774352557
0.0230648645231471
0.0234871743349729
0.0238927140507697
0.0241965345924398
0.0247156631557041
0.0253801161503247
0.0259949042844667
0.0264514797038524
0.0268492441050172
0.0274213990728454
0.0280947890045684
0.0287733548611065
0.0294748321042291
0.0302143757320126
0.0310095547679655
0.0318663643488487
0.0326719866631148
0.0335392716458476
0.0344939599690322
0.0355550044348827
0.036684074448799
0.0379522598020551
0.0394056911422692
0.0409533273991361
0.04263689750473
0.0443283684116583
0.0458387953993947
0.0468862924572002
0.0471680166484202
0.0468151313593965
0.0464651043252826
0.0467126173355758
0.0474626140162612
0.0483545714698542
0.0494091029809709
0.0505109561286621
0.0516081882676288
0.0527240609857838
0.0538652387704119
0.054938414965618
0.0559676105154401
0.0570704291442488
0.0583041424207947
0.0595292177858829
0.0607519118117984
0.0619993610908915
0.0631073516224028
0.0642839653618946
0.0655921416653752
0.0667809915072784
0.0677704967644497
0.0688866372284721
0.0701701155903841
0.0714645884028908
0.0726326511962975
0.0736611948288133
0.0746755670646496
0.075611629926556
0.0766680612164346
0.077843769820971
0.0789120595473753
0.0799219408505026
0.0809662413190456
0.082014428600128
0.0830091899024994
0.083901474463834
0.0847429597278654
0.0855572697976175
0.086357541361381
0.0870123799765726
0.087658175369398
0.0884240131222764
0.0891078049094532
0.089848867586765
0.0907185388794428
0.0917310547582495
0.0929247155842956
0.0942178421369773
0.0957929571317907
0.0980078561654715
0.100337312990812
0.102658875293192
0.104969347483636
0.107294670465242
0.10975380877258
0.112270682782578
0.114911497638416
0.117551005580523
0.12014506707747
0.122777646594808
0.125591183433597
0.12827969002604
0.130881944519199
0.133800684976717
0.136767521774505
0.139319504928889
0.141768683945007
0.144172966719989
0.146407217508695
0.148388508448325
0.149985468645905
0.151189358415216
0.152308538408466
0.153386197368935
0.154460005639746
0.155424614425762
0.156580892288925
0.157835655117618
0.159101848080523
0.160363267371746
0.161429570112645
0.162569323002174
0.163611712609364
0.164038122939617
0.164464489694244
0.165046451776133
0.165367266779293
0.165399322045323
0.165449870519235
0.16544452281093
0.165388337365919
0.165134500812199
0.164738915876621
0.164148924016302
0.163438689495359
0.162766204659022
0.161833725450371
0.160568921814402
0.159215920373252
0.157895194880777
0.156443296069188
0.154802992265011
0.153022069727197
0.151032142554146
0.149304803167524
0.147590478579999
0.145577810469599
0.143620002917757
0.141650046620758
0.139801528423381
0.137848280150403
0.135949024286664
0.134323582511725
0.132619012979839
0.131126698215486
0.12998717493651
0.128918183653834
0.127736693385864
0.126739943753877
0.125790715413064
0.12480907372544
0.123812061081485
0.122885482089907
0.121960791625414
0.120957167843016
0.120283005669136
0.119845492127091
0.119312898779588
0.11887844819334
0.118980429478099
0.119099909126542
0.119015762503278
0.11877371785809
0.11818130398712
0.117035852855616
0.115155666786178
0.113237643658122
0.111434396990635
0.109259574297517
0.106915614160363
0.105030205596675
0.10341272687616
0.101842598717009
0.0998579031967869
0.0980280177358366
0.0965725656768979
0.0951697956701834
0.0940707994257823
0.0931366576885429
0.0920568531962533
0.0908666623466768
0.0895839272819758
0.0885409542822821
0.0874563685508383
0.0861410472637835
0.084894800202965
0.0831526253171054
0.0809609603535534
0.0794097726515962
0.0783029495529442
0.076559473179747
0.0749780223878004
0.0734060686929665
0.0715512436297814
0.0699863575680086
0.0686351858793483
0.0676935886290469
0.0666065959006052
0.0652580276259873
0.0641052105097104
0.0635152243179902
0.0633534659263264
0.0630224097694566
0.062720071685636
0.0624434579919848
0.0622432777173373
0.0623553558515187
0.0620308826865566
0.0614411845537945
0.0607637490313126
0.0600111450164786
0.0593818107344281
0.0588976754102167
0.0589984563507318
0.0595381083803765
0.0601455737719165
0.0612444547035746
0.0632372768131701
0.0664666559687672
0.0709693239240519
0.0762450950777763
0.0818028402814895
0.0864899381774762
0.0899687359917305
0.0924225855541761
0.0933952843229565
0.0938450213278452
0.0942014802487536
0.0944786993779591
0.0948704314723332
0.0957984051481269
0.0981289216129681
0.100985565680693
0.103323078621749
0.105061202356085
0.105617948400381
0.104760439529546
0.103456333007222
0.102455798535922
0.101485762464373
0.100235455827781
0.0993535226789432
0.0987140353825455
0.0985798857861198
0.0981209448455506
0.0970879858980063
0.0955531489584658
0.0939735603519979
0.0936517990685282
0.0934711773162222
0.0927798625200401
0.0921930793928093
0.0916304975036566
0.0901181416380578
0.0888673765175151
0.0879710643346339
0.086583651243925
0.085810011820783
0.0857532571135385
0.0850552255208536
0.0838169282081413
0.0835474160949164
0.0839293297956047
0.083542679279522
0.0833597492295585
0.0832507104107165
0.0819783246475026
0.0806489161837764
0.0795957306368879
0.0792705704773783
0.0787703492306694
0.0784745424273863
0.0786335866241109
0.078078933772149
0.0783102109808534
0.0803612936210311
0.0828565430895526
0.0858415758993446
0.0901982615415376
0.0921422360843312
0.0904438171220544
0.0888928818160205
0.0889043695936591
0.0887329012079336
0.0873199711138651
0.0856002892843457
0.0847371678437271
0.0852008790067005
0.0848440133525956
0.0850411515044917
0.0855287683586349
0.0836097156894942
0.082209427428013
0.083036707941253
0.0837476935523463
0.0836282053913986
0.0808782681880563
0.0797603060873497
0.0826871063033965
0.0836075986916158
0.0807905392606599
0.0787970792922077
0.0804142080123293
