1798
3999.43349933624
650.420452594757
1
2
4
0.00786497484223866
0.00833981388271627
0.00877763048281398
0.00896531141446059
0.00902748414821232
0.00898622946532933
0.00857105051626337
0.00814642140235381
0.00833101253295478
0.00884394120268193
0.00871049968673559
0.00855991550283886
0.00848881102440062
0.00859061818327574
0.00886797086748497
0.00884885076557248
0.00883527795227468
0.00897362633453271
0.00879400217617863
0.00881370615259143
0.00888317057041449
0.00883238338848044
0.00895511964869027
0.00883130177307108
0.00860096305765685
0.00847082172194744
0.00834498813677112
0.00825642399397859
0.00819536277977922
0.00824965235162617
0.00822990871012128
0.00855918440554277
0.00884433554464056
0.00859390169568696
0.00842599357093793
0.00846432545140677
0.00836456923956826
0.0082081378719971
0.00868355799829055
0.00882923599689905
0.00870057529258587
0.00858915229700478
0.00806075956461993
0.00802616440331067
0.00842580377544535
0.00832813316266029
0.00795654753668954
0.00783089268444389
0.00870757205198664
0.00896862226644528
0.0088403292440022
0.00901214045587618
0.00914414283006085
0.00882919331211067
0.0085441055869189
0.00822132339503806
0.00789648137583493
0.00835672108964176
0.00841857768127956
0.00806662672569688
0.00799786592841937
0.0078778958994314
0.0079454635762786
0.00821571455893381
0.00801699241921358
0.0078153913573424
0.00815883550195753
0.00828441203032317
0.00850780472159872
0.00843905430597027
0.00820970712823955
0.00880377017245538
0.00878482661883555
0.00825727958221438
0.00809619964440258
0.0080587316989379
0.00757000508632467
0.00773433547103981
0.00724179746909415
0.00730494590804036
0.00829630585437256
0.00849195115753728
0.00813162662340467
0.00768879317680247
0.00762442405893408
0.00777249205431611
0.00791322558104699
0.00813943445292394
0.0084009154576457
0.00831125179792228
0.00813773622262209
0.00761681566094138
0.00799432628171093
0.00841863506364225
0.00820425260984363
0.00823352544985012
0.0078576144746331
0.00791894485323817
0.00818405099387435
0.00814400431958991
0.00776219822904568
0.0078960492155335
0.00809081193881947
0.00752353053952603
0.00764905528431732
0.00775131214900879
0.00759820872476514
0.00785977884940021
0.00806740124609334
0.0083093303192929
0.0084680718779933
0.00802825902042232
0.0074389382999605
0.00763103521302562
0.0075696973333711
0.00762520934279246
0.00754758438455894
0.00795778120749339
0.00867770352534436
0.00835107411884654
0.00757761655465073
0.00700291076339152
0.00741600487507674
0.00808210060111984
0.00836575794430752
0.00827252280951437
0.00803993096846154
0.00778129547153446
0.00804883994650264
0.00836842970674064
0.00774479478461697
0.00745641525751251
0.0074285660367159
0.00687026529263188
0.00667270368353382
0.00750846076380274
0.0080138226778722
0.0076247251053841
0.00675527473780066
0.00669382551243581
0.0076075524810168
0.00794842480280141
0.00789921167821398
0.0073624973579742
0.00665563720385621
0.0067704124582805
0.00761082609934423
0.00719714171512784
0.00636283875424407
0.00629568827515258
0.0069475958267344
0.00741842670919147
0.00729734110732521
0.00743902444521808
0.00792298860588599
0.00753415829824188
0.00756469829890336
0.00765093493063369
0.00767599002928202
0.00837146740750367
0.00917969096928492
0.00966111438825902
0.00961252707296944
0.00968426034533247
0.00964971439222189
0.0100779983407095
0.0103713713747324
0.0102786792828721
0.00967086790085414
0.00959842231730075
0.00989715176609845
0.00972039379119129
0.00940935214977857
0.00930970188773425
0.00905505576443489
0.00961716115721173
0.0100060925924131
0.0104243295732802
0.0110032323153979
0.0113876938867896
0.0105962239165875
0.0100744969383322
0.0108289113773697
0.011589159561424
0.011952697487799
0.0121670400117374
0.0124495679481136
0.0127279678709407
0.01216566840978
0.0124923984485244
0.0131807013152738
0.0137642824143457
0.0136261054263141
0.0139666240469491
0.0149396568429165
0.0153767525311589
0.0154253555952746
0.0154890521663235
0.0154038590536349
0.0158825843962334
0.0160997003591988
0.0162020944157156
0.0169971260313366
0.0179823068506184
0.0182665867466326
0.0184590403600557
0.0183636514524922
0.0175393233649225
0.0169803880656866
0.0168662906153591
0.0169947442968054
0.0178014946562298
0.0184029206520728
0.0182865056104576
0.0178186415050101
0.0178841469313477
0.0182207180757493
0.0186145402157444
0.0185341826864621
0.0181888273212371
0.0185131400856021
0.0185453833948116
0.0177049634714158
0.0174058123242179
0.0177643071946166
0.0187184503139571
0.0188286321722692
0.0184160367750626
0.0185335402962219
0.0182700601305454
0.0179876297935987
0.0190254629744078
0.0196025338883484
0.0194613172122485
0.0192507933971222
0.0194461538498561
0.0198430398926171
0.0191001631504594
0.0186605537735663
0.0186746551520212
0.0191205896334597
0.0191803871337403
0.0194671349476283
0.0195391507091624
0.0200358354449505
0.0208703614180734
0.0203097797260036
0.0200757383702599
0.0209940589790446
0.0215992675865265
0.0200788086850504
0.0187461735694606
0.0198626878135454
0.0206420333367412
0.0199716574233035
0.0203650297395985
0.0215328911670072
0.0215727929321982
0.0208535718139403
0.0213879098399046
0.022871203105923
0.0230885141891792
0.021333242958193
0.021111675807806
0.0220702707732728
0.022397813402939
0.0217927380709022
0.0213809605748607
0.0215305138360063
0.0220979406247871
0.0229330473928396
0.0236009151970517
0.0230190395393573
0.0235793088395749
0.0240724817364472
0.0234622812325098
0.0230451479171987
0.0239266293113302
0.0248422369088929
0.024293806800206
0.0241213844364804
0.0241794424345853
0.0242551122869612
0.0250553292235921
0.0255267423946386
0.0247794043876153
0.0243743628335979
0.024920000988726
0.0254235806012679
0.025509993553828
0.0256294816621802
0.0257183513903287
0.0251491164432707
0.0245329998486415
0.0252852307394817
0.0256636845513646
0.0252782821332835
0.0254833685127311
0.0256893181929761
0.0258166198353169
0.0257322342946492
0.0261350677828774
0.0267305187675606
0.0264189588628584
0.0250228636844267
0.0250361368907035
0.0263914061790063
0.0262912525051701
0.0267244213283559
0.027283929557624
0.0266121817942785
0.0263294890455141
0.0270715424143101
0.0269559051318029
0.0266884892786483
0.0267178126336674
0.0259451987234798
0.0255891298933149
0.0263365386525613
0.0273710036093767
0.0275042789413676
0.0272537684963561
0.0274763281938421
0.0275784467448865
0.0272519496162008
0.02683449684271
0.0267846089563193
0.02670290427897
0.0262295442600377
0.0259682197171118
0.0262152637953986
0.0266671654978071
0.0275444980898416
0.0287284020984187
0.0285270535963095
0.0276912927134804
0.0275948485896842
0.0271478630000808
0.0270603182035183
0.0276427245646765
0.0274993369075383
0.0272675833535588
0.0276976705968154
0.0280526489858077
0.0282402901566931
0.0279298200171103
0.0281100072282362
0.0278715209975701
0.0274489132488544
0.0281022054799622
0.028634959572812
0.0287882034518671
0.0283500533605057
0.0279801771759751
0.0280110193492289
0.0280445472102901
0.0283632478981053
0.0290780587609197
0.0290614169617128
0.0284549267297328
0.028317732344002
0.0287296113413157
0.0289867741034452
0.0282503805264164
0.0280565258418203
0.0280623930321817
0.028260060221014
0.0290660279959134
0.0292428706960211
0.0292094776783048
0.029351587157259
0.0289958299977698
0.0287204363841155
0.028452893120955
0.0287257539568929
0.0292595076364965
0.0290362763687122
0.0285236617371199
0.0284790476990285
0.0288629936442176
0.0291960779678736
0.0292752739335405
0.0290893793336024
0.0286051336114321
0.0286326659197343
0.0293666095852189
0.0296436304192409
0.0293728558073095
0.0293310316067371
0.0289087118237198
0.0289642587718031
0.0292935177594795
0.029151924009077
0.0288082553996407
0.0287042163331887
0.0284165780393768
0.0281065090256633
0.0286319907799413
0.0292689269181426
0.0294874418140878
0.0291082996435731
0.0286099172774523
0.0281539907885894
0.0281149008951171
0.0283127494036134
0.0283740981047344
0.0284405020823741
0.0280564804235427
0.0279235524607978
0.0284149427812614
0.0284679292930746
0.0283208468508525
0.0275849439491877
0.0270757996328178
0.0273563203573359
0.0276049433067311
0.0282067240635482
0.0280925278310677
0.0271563008217417
0.0268859632054729
0.0271311399160109
0.0271429402606197
0.0267986344754864
0.0270693284542294
0.0278009215643792
0.0276858549708709
0.0268728646512771
0.0260961536698476
0.0258732797756042
0.0264767698701256
0.0268788071258847
0.026554005854847
0.0260893058734312
0.0259135176703662
0.0260156559739138
0.0261775249509737
0.0260151312001057
0.0258726426440667
0.025993379830733
0.0259616745823949
0.0255876586553096
0.0253030916740866
0.0254545623768776
0.0253103098962761
0.0249131026372986
0.0249672203323512
0.025250263515472
0.02455847330636
0.0241802872349217
0.0248721725890908
0.0249910824085632
0.0250162965657597
0.025095863316962
0.0246508404840114
0.0243770245336623
0.0246583553413941
0.024941329061169
0.0244817663806437
0.0238838228453002
0.0237137104747813
0.0239080666279245
0.0239129214479689
0.023714181108214
0.0238165045520324
0.0237661705622128
0.0238454038831603
0.0236482215447766
0.0230881723663352
0.0231120127208237
0.0231892632196344
0.0231298840252492
0.0231365880763036
0.0231211325670601
0.0229103330839706
0.0225444023342692
0.0221131097459475
0.0219246315297291
0.0223281331602014
0.0227703163439151
0.0228463016835915
0.0227544253532557
0.0228195012262727
0.0229177459793677
0.0224034989357643
0.0218758346440334
0.0220243159073343
0.0223441215317801
0.0220044034693339
0.0214401575372205
0.0215453712385321
0.0218201608368563
0.0217579874313417
0.0215904129022609
0.0213537813539091
0.0213981123246782
0.0217419603170405
0.0216482103812348
0.0212651587105649
0.0209241372973847
0.0206597457184459
0.0207140744770193
0.02071758532554
0.020327043962357
0.0198055858640459
0.0196680039790152
0.0199407853644872
0.0203124540160166
0.0202776939834293
0.0199839790994099
0.0201419861866424
0.0203426925424106
0.020007897598342
0.019594799453112
0.0193221789981444
0.0190515041498814
0.0188652939455899
0.0190481035584223
0.0191556699305425
0.0190286636635425
0.0190604987157968
0.0189201883814374
0.0186240484210815
0.0188273940231941
0.0189145698410111
0.0187128534583591
0.0186349127873994
0.0184610487011768
0.018436082369301
0.0183544753276114
0.0181551965173008
0.0180892274055232
0.0180774384085547
0.0181359176593173
0.0182098020821499
0.0180068234159107
0.0177773739255725
0.0179286127512154
0.0180595246553117
0.0177838570513253
0.0174605107694437
0.0175597308806193
0.0175994069258593
0.0174759064735058
0.0176599285770234
0.0175611538255112
0.0173546575098121
0.0179386455686928
0.0182441331445539
0.0180395087283659
0.0177523816252579
0.0174434137985288
0.0174922998645684
0.0177355333244611
0.0176856109075434
0.0176895206798209
0.0176847009965022
0.0174970178403802
0.0176967095370956
0.0181417586798775
0.0181317984810363
0.0179896276894135
0.0179761496541048
0.0178603200097669
0.0179979994900944
0.0181946335225946
0.0181644448596451
0.0180775712325276
0.0178553419068264
0.0178767486178603
0.0181902970398905
0.0182379955663968
0.0179687458553026
0.0180273471171227
0.0183681236446742
0.0185939856975749
0.0186562183232252
0.0185613921163925
0.0186824658016775
0.0188836236403558
0.0185315387438859
0.0181844465361679
0.0183462077629667
0.0183431680324903
0.0180813396237885
0.017797048820069
0.0176123056985945
0.0175879998285749
0.0175543115025049
0.0175878309892763
0.0173370785312812
0.0171014549604762
0.017178458283078
0.0170339051873615
0.0167953565571696
0.0168544861863123
0.0167451978749152
0.0165932977677483
0.0166821702030741
0.0169630141630471
0.0169537519674424
0.016542128273902
0.0162867049753592
0.0162464867083448
0.0161843895652554
0.0163078080787322
0.0163057438418096
0.0159899651383163
0.0158214403506371
0.0161587853081708
0.0164520568241248
0.0162627677084109
0.0159364199209568
0.0158629654371029
0.0162856867420105
0.0164827288983432
0.0163811576964536
0.0163415934571066
0.0163647606375656
0.016423318249117
0.016141581750432
0.0157412177973656
0.0155805573977741
0.0157463465369538
0.0158968196754235
0.0156195030073472
0.0153725824296973
0.0154338689544924
0.0152877598849855
0.0150558401616502
0.0147908646745544
0.0147656635104558
0.0149593419768068
0.0152412615504601
0.0153076473445294
0.0150025742652572
0.0147592209379532
0.0147572503793832
0.014552703387676
0.0145085717828851
0.0147454062445484
0.0148210344738986
0.0147473433502176
0.0145744932945235
0.0145618869292473
0.0146591611034998
0.0144340435699037
0.0144140989502227
0.0145598189547854
0.0141479943295983
0.0139473026708892
0.0143574636913169
0.0144283034837634
0.0142089433396448
0.0142014423384226
0.0144273345683537
0.014399385053617
0.0141378612062032
0.0139946435748098
0.0140269258429117
0.0140060846838563
0.0140506644426674
0.0141207255515358
0.0139789929435663
0.013778026586649
0.0135119070347437
0.0135352955874681
0.0136336708835266
0.0135179832799591
0.0136554782875523
0.0139598425706553
0.0138156482592447
0.0138244488290233
0.0140487903953928
0.0138822244782701
0.0136231438980853
0.0135714024914083
0.0137690172271607
0.0138298476855287
0.0135876360132704
0.0135760738161403
0.0136011620698584
0.0134128870329604
0.0135087991764573
0.0136417246964558
0.0134980335698604
0.0132109090643235
0.0132067879836495
0.0134747349274117
0.0135573128245297
0.0134320060564834
0.0136080449339576
0.0135075589708454
0.0133756648079093
0.013374936576892
0.0128824955988439
0.0128599648573983
0.0131633755733528
0.0132649494450716
0.0134067910142548
0.0134666154132418
0.013172980811753
0.0131122616072664
0.0132552778248595
0.0131819916412235
0.0130746413136983
0.0131619669382199
0.0132670872173119
0.0130435628582106
0.0129838211459069
0.0132679587389268
0.0133279867776554
0.0132509252589585
0.0130769960414183
0.0129459503104396
0.0128603719799123
0.0129298266736397
0.0130379276847262
0.0131166918117243
0.0129875562394989
0.0129777056263197
0.0130638544255518
0.012866729640236
0.0127320706903439
0.0127934531681508
0.0129462700691096
0.013153407266607
0.0129584394449068
0.0127593765307958
0.0130784140093461
0.0132057846427419
0.0129871634474037
0.0129239545721876
0.0130774628992744
0.0130383057383555
0.0128777730771957
0.0127043343373594
0.012598628707768
0.0126658029435279
0.0127404463898846
0.0124047739892884
0.0119037316355437
0.0118385692718308
0.0121956658425951
0.012462282810056
0.0124517592984487
0.0122737934680198
0.0120121265984256
0.0120083822225987
0.0123807906819214
0.0123002879609152
0.0119242347511613
0.0116743787832121
0.0118615419171336
0.0120574735681154
0.0120023882530254
0.011775340905346
0.0117742816471289
0.0118961305433257
0.0117957702406539
0.0114890052906636
0.0113375821133714
0.0117138249076526
0.011745443881611
0.0113012498486409
0.0108046459951213
0.0109450464232006
0.011483302863748
0.0119540649677114
0.0120545011917343
0.0115314791517626
0.0111078472499365
0.0113530465434475
0.0114258751764529
0.0112088862795144
0.0111626350755287
0.0109969389811189
0.0109245818822326
0.0112252738328095
0.0114900935184297
0.0113953025486678
0.0111348286033119
0.0112647387974152
0.011363396698124
0.0109766048640345
0.0106347060054365
0.00999374917432611
0.00990838950746474
0.0110155348722118
0.011493805871274
0.0108903206370517
0.0106034466093088
0.0105709232760286
0.0105508596245676
0.0107873357250442
0.010563815006988
0.0106433053659579
0.0109131894585169
0.0107910071363928
0.0106300718160324
0.0107755515995651
0.0108202669649992
0.0104280398481314
0.010779035697575
0.0107637612072105
0.0107094998631533
0.0107647675695772
0.0109978414000701
0.0110620769298925
0.0108497169053111
0.0103054905413534
0.0105046765383449
0.0106408285710277
0.010382212192208
0.0103381659542184
0.0101212197369134
0.0101754524377517
0.0107655030605904
0.0112652965859261
0.0114112964954384
0.0108410757364878
0.0100599257341011
0.00959178690642037
0.0104259553760364
0.010969012398202
0.0104214973500852
0.0102128552179509
0.010324087386842
0.01013827231638
0.0100987394875713
0.0104195326504453
0.0104296092312688
0.0101630507072429
0.0106186664294765
0.0106947068710109
0.0106761130213928
0.0105684538250462
0.0104841739810987
0.0103515778663093
0.010031145588002
0.0101661244666976
0.010305477711592
0.00987599348205694
0.0101542061497236
0.0102260060084384
0.00995322684265103
0.0102510323787816
0.0104191470453146
0.0102613628767807
0.0100961436653553
0.00994311665833243
0.0102608870840771
0.0102614063709354
0.0102193033834065
0.0103316337860297
0.0101634720649329
0.0100369574820976
0.00983228189937448
0.00932665928505626
0.00958627885707854
0.0101460133905575
0.0102856698483367
0.0101797374125312
0.00987415796874093
0.00991639617511785
0.00975353437643251
0.00982403012077676
0.0103328823555752
0.0103753201870023
0.0102968131076779
0.0103224501429044
0.00976147256976892
0.00952565631248449
0.00970320620400335
0.00959206123862751
0.00936649081655117
0.00938964721502739
0.00941489229467464
0.00959546101269827
0.0102297765318715
0.00999424778771704
0.00973229884568376
0.00989868549076411
0.00973530966082493
0.010019351826982
0.0107471960172216
0.0108288830677044
0.0103944248144343
0.0102132017149275
0.00997641906817708
0.010070412301194
0.0105409050699586
0.0101614669810623
0.0101414370260927
0.0106597089471739
0.0105885420103877
0.0101054431039879
0.0100273673608241
0.0104039945195759
0.0111221209773152
0.0116600689435873
0.0115195049492332
0.0114615553145512
0.0110282070416078
0.0105586441689781
0.0107270608629195
0.0108429590049541
0.0108367199739205
0.0107448035893535
0.0106374268506278
0.0107223600209469
0.0107441254336092
0.0105012825574888
0.00991050324458853
0.00980208593100484
0.0101133530963033
0.01021783428602
0.0105476110486614
0.0106075624561023
0.0106846707272834
0.0108174871589366
0.0101812898340651
0.010061592261299
0.0100905970733503
0.00948961054647492
0.0092697443700976
0.00896704361266666
0.00876449978461815
0.00876228862852099
0.00829621334862566
0.00848277829182158
0.00908955435781074
0.00897053000485902
0.00943863220087407
0.00973919779483119
0.00881739318909535
0.0078590546845974
0.00685173176940506
0.00711553484593312
0.00768717174736271
0.00731481173683976
0.00674553618336815
0.00692357381918713
0.00718752558080685
0.00690899443462319
0.00762698735334987
0.00888474059205123
0.0085757380163205
0.00684327244516301
0.00622214400103889
0.00710870375784963
0.007333404376635
0.00589834800447157
0.00529782113554598
0.00610170055806284
0.00589579286953458
0.00543150505431815
0.00538544466367841
0.0052737272257104
0.00587569131657007
0.00671309784693824
0.00737688904175916
0.00658541788448868
0.00625227938723871
0.00675362630232915
0.00661190057061204
0.00421940773506209
0.00320875457602862
0.00412348776019073
0.00485524774896324
0.00492610191581917
0.0051041886982872
0.00578105271303227
0.00423439303491885
0.00258195777393043
0.00260061937491741
0.00279355507161173
0.00296168084601342
0.00371403334609829
0.00453341134909138
0.00374454795895122
0.0039362217779385
0.00525421999305552
0.00603497202500017
0.00509374334663876
0.00405748748655247
0.00408095964570427
0.00286284450068267
0.00106418625011608
0.00101071673625938
0.00112909502780563
0.00227590091764566
0.00232740167579112
0.00232354916242078
0.00277635251074077
0.00187500082932491
0.00137837318531813
0.00272217514815351
0.00390129256050924
0.00445590041171983
0.00531360728706628
0.00509056944029449
0.00563655011750163
0.00705711761332674
0.0066295094984025
0.00644925093093587
0.00657619773417652
0.00630846075485356
0.0067171044543704
0.00741440256754145
0.00688557409679003
0.00636221223636911
0.00728488077670213
0.00787413449409658
0.00790592603996748
0.00682088628267934
0.00579078526720828
0.00596707911725709
0.00641126664575136
0.00704346094798583
0.00741880596335302
0.00804690222450972
0.00763097216488185
0.00634649797390749
0.0067714684152053
0.00740277901668047
0.00726064441406027
0.00720021156161597
0.00677210176990605
0.00674810749556533
0.00695381338374656
0.00672603318802437
0.0063555288528666
0.0066894459888063
0.00633750815292416
0.00551811801870186
0.00554111522302622
0.00541190363384371
0.00580219826598177
0.00588125528177842
0.00610109188766171
0.00684137777309739
0.00644543318310312
0.00509306040376448
0.00370534559828605
0.00332527554228066
0.00508901161609202
0.00587919501839993
0.00418937330533887
0.00299520119263754
0.00347273938093169
0.00351012571511595
0.00257334015274624
0.00130443068635729
0.00117918766617239
0.0025060665810097
0.00339708182319795
0.00162907962539776
0.0011000869919781
0.0015978506352411
0.0013926193976931
0.00299457883407367
0.0021791959643078
2.36279050865982E-05
0.00256041087651587
0.00610419922469823
0.00638211301733594
0.00458946647794656
0.0027811437321921
0.00266563058538728
0.00342235770116728
0.00277245351981482
0.00195412462448787
0.00186957453967474
0.00321098542713013
0.0047956332991671
0.00487150110160442
0.00431952758351235
0.00457399468979169
0.00482283195690246
0.00394185381214497
0.00404238012853329
0.00494323250995829
0.00455070307650098
0.00390737021227396
0.00372227803135614
0.00410673104424518
0.00489315569198235
0.00398755957229082
0.00237541331891226
0.00210923901857367
0.0033253855662386
0.00364709788986255
0.00445501621673444
0.00533250025906902
0.00452035088671425
0.00474342182270975
0.00569742056858126
0.00507733013774527
0.00445258445108707
0.00546942574855466
0.00622607627621589
0.00614646936793607
0.00630911672177528
0.00699508615673358
0.00733714056372913
0.00695644843736586
0.00688641626276655
0.00707006920935428
0.00732706269841033
0.00760693710782218
0.00740093394281829
0.00649988252303847
0.00615867160150403
0.00684718841977758
0.00774298820971943
0.00731956153036434
0.0068322424794248
0.00743117953449188
0.00764615608352382
0.00762853883665685
0.00771862353317048
0.00777436177436476
0.00765437823285388
0.00748495848293766
0.00778075811675458
0.00833246541132794
0.00854340997789159
0.00830395729555303
0.00796181551892935
0.00791045631810328
0.00792813665468514
0.00750099248937999
0.0075949717744263
0.00813801792831598
0.00845087928974468
0.0085384072867944
0.00835024423903434
0.00829695131264885
0.00843873544996102
0.00838998101097414
0.00829288959743164
0.00791239614587964
0.00806357205000499
0.00901046274157167
0.00941156052633719
0.00924371651816181
0.00892939048161612
0.00869973909393783
0.00875466650686576
0.00881712311204781
0.00874774804254371
0.00847752981474429
0.0083482311307315
0.0083945632858352
0.00844946277926154
0.00814940221459391
0.00790850755393236
0.00820533016226837
0.00841792409817516
0.00812262049006586
0.00820083924903114
0.00875726995525676
0.00873711859951366
0.00823496377659217
0.00823904568368913
0.00845646104973833
0.00854246303702593
0.00887387574250862
0.00907005249023151
0.00922727779547601
0.00887878880255827
0.00832416967011653
0.00842989242708219
0.00859331081274685
0.00851893229233351
0.00868319695624323
0.00902616612364966
0.00917508501637723
0.00912855361335461
0.00896345082251371
0.00895529415295026
0.00917444936192272
0.00922018538420665
0.00910540097950895
0.00916689224913066
0.0093667435444344
0.00942707970103292
0.0094052482959521
0.00944345353214463
0.00949271504511667
0.00947154627258524
0.00959226621955687
0.00954687055823798
0.00938524261007719
0.00932683320368232
0.00966748855601359
0.00957079728767293
0.00970708231541584
0.0100685117228698
0.00991294566728461
0.0098561162348033
0.0101548034190488
0.0101491108300147
0.0102287414173487
0.0104268826108549
0.010458240748919
0.0106360842609722
0.0107682292073324
0.0109143771262532
0.011413706551241
0.0118736032328479
0.0118144587842675
0.0118583134636044
0.012132982333595
0.0117580512017624
0.0119673622114735
0.0128108409703862
0.0129729420230924
0.0131163665019552
0.0132491029722239
0.0134629810772108
0.0137995192336286
0.0139215317341051
0.0138465876832975
0.0142055746370527
0.0149297911292086
0.0156783534501606
0.0163235901712845
0.0168859433734578
0.01739956582933
0.0181557061964079
0.019291008357136
0.0198643732099336
0.0210298490524264
0.0234233410250781
0.0246028802627285
0.0267622458581327
0.0290357951055086
0.0310067457467491
0.0336724700627336
0.0365862475363379
0.0392401063135822
0.0438254933647514
0.048209525937078
0.0510593537075758
0.054314201333043
0.0573133667071091
0.0616628517056383
0.0653554120790972
0.0681219801001072
0.0718663295595338
0.0755910418515015
0.0784777859528292
0.0814436047274325
0.0846247920249124
0.0871966682886638
0.0892850563700098
0.0911391647497348
0.094048385906908
0.0987211371592426
0.0985037149561727
0.0983429247489313
0.100332710682846
0.100744064691996
0.0992255546269961
0.0978146426163629
0.0964283074781738
0.0956359333198406
0.0957681519568423
0.0943867327021942
0.0924217192307098
0.0915816445853378
0.0913489155647221
0.0906294506654011
0.0898817096653885
0.0893830864134774
0.0873421016052643
0.0857023531700404
0.0848549981438216
0.082496048636203
0.0793927110157996
0.0770848540718639
0.0745989907850065
0.0717678323309919
0.068593413977176
0.0656688240490758
0.0630535624436751
0.0602892494993322
0.0574572454895785
0.0547474407193543
0.0522776210322324
0.0501583113003344
0.0483969344601783
0.0468193388677181
0.0453368058389227
0.0440971988645568
0.043005040806066
0.0420022837414084
0.0410950340265348
0.0404107131740672
0.0398241246061017
0.038266871343954
0.0371655573160085
0.0369361946772125
0.0365463810822769
0.0356107980152194
0.0352089644242948
0.0347847175433909
0.0347204432304687
0.0354096939266108
0.0345866964281301
0.0334190460591994
0.0331220645856459
0.0328825971265996
0.0332123028425237
0.0328684875276496
0.0323853483493034
0.0321129555334159
0.0316572652108302
0.0317985016940607
0.031642856635308
0.0306045590671387
0.0300836021044924
0.0300462016668324
0.0296480611843662
0.0293565655700017
0.0290539067936249
0.0285676148101546
0.028040190112562
0.0279989996018525
0.0276145499113062
0.026810615718628
0.0266596053672564
0.026243196881009
0.025815823864263
0.0252768256337764
0.0249455827192218
0.025289762288658
0.0247156738977215
0.0235348527916402
0.0232927137889643
0.023268150965718
0.0230698177363827
0.0228628063201341
0.0225710577308109
0.0221744812497049
0.021926739528774
0.0216174964239594
0.0213338627214178
0.0211184177880902
0.0211542110907344
0.0212314284152136
0.0211287298456299
0.0212870350746195
0.0215005829249457
0.0216414003747288
0.0220782606050083
0.0219410304855425
0.0217702243016602
0.0217216407634506
0.0219716632565461
0.0220107120261946
0.0221082060478833
0.0221851972557708
0.0225036665638761
0.0223367126200142
0.0222048381250104
0.0224629327383222
0.0228079960589683
0.0228937260944581
0.0227149892983178
0.0226526624010802
0.0227508424617991
0.0227745076981896
0.0227234448278673
0.0229682650160071
0.0228834838338486
0.0230282541020193
0.0233027024419286
0.0233040564787678
0.0230355612614849
0.0232075660202658
0.0235552504532776
0.0235155764889374
0.0237793280241556
0.0240776707515131
0.0240647229662485
0.0240777239060465
0.0242277412210498
0.024285586599838
0.0241586994748907
0.0240575626736551
0.0242367315485865
0.0244542326903462
0.0244951854491436
0.0245508741993948
0.024532463390289
0.0246176917310349
0.0246204664050597
0.0245856948786201
0.0246730653476364
0.0248482378293721
0.0249833117048759
0.0250875433380047
0.0252679463032517
0.0254276302972573
0.0256776014202768
0.0258224329815766
0.0260659831149448
0.0263035121110651
0.0265806960962998
0.0268918397477847
0.0269692274155549
0.0267944918451013
0.0268141862595762
0.0269967366338313
0.0269569937344551
0.0267786288868312
0.02675699952641
0.0267970521085511
0.0268000461909176
0.0268331588838301
0.0269329306093836
0.0271878353101817
0.0276628867605445
0.0281912075741926
0.0290529130124421
0.0303408991183503
0.0318762202759516
0.0339844321303321
0.0369738744342176
0.0408234579098039
0.0457319278705348
0.052155588169816
0.0599689916490048
0.0689476862363749
0.0784051454173676
0.0863744769264478
0.0900292285261681
0.0869988122655068
0.0782066600166427
0.0672514624711475
0.0568440908791809
0.0486124951089472
0.0424210357931265
0.0377528891776067
0.0341771806367962
0.0313786267172354
0.0292446265010708
0.0277019807150837
0.0265639992006873
0.0256694294368165
0.0248903767270834
0.0242189472979538
0.0237119666480305
0.0233530423577272
0.0231279378176748
0.022947636262362
0.0226730159744127
0.0224206569772828
0.0222812136906676
0.022268116125796
0.0221787030678046
0.0219962888813953
0.0219348224329841
0.022021923067504
0.0220573880105598
0.0219733333977435
0.0218919395456486
0.0219471520859515
0.0220619924389982
0.0220566345780316
0.0220918301378382
0.0222078970006272
0.0221022685546826
0.0221685176412534
0.0224017363128093
0.0224521101399176
0.0226118360623956
0.0226630666886803
0.022673515423364
0.0227936837037216
0.0228139428415224
0.0230341298720424
0.0232247113713207
0.0231999707274633
0.0232408486210938
0.0233879705751769
0.0234791026188226
0.0236512242711034
0.0239456061789801
0.024299845485988
0.0245530321457406
0.0247763434633995
0.0252040879331509
0.0257355040796953
0.0263862715810015
0.0270471077373399
0.0276998270293255
0.0285124490624567
0.0293439561998671
0.0300527142579211
0.0308449943090679
0.0317746202724795
0.032564264333032
0.033360714169546
0.0343141902964785
0.0353550071483788
0.0364051942936249
0.037375915357328
0.038319959380462
0.0395877541973682
0.040958726543195
0.0421642615179199
0.0433834173017813
0.0448303154039082
0.0463799594349025
0.0481288225760511
0.0500438846151022
0.0520302876109549
0.0541579582290396
0.056166160706139
0.0575258259983955
0.0577945092946941
0.057173131581517
0.056602725683855
0.0565621034961318
0.0572527252743367
0.0585166263067813
0.060020679450662
0.0616336495247155
0.063176165388253
0.0647364506653762
0.0662615155181871
0.0676964570134501
0.069260485874062
0.0708770652544427
0.072468622816683
0.074057118348551
0.0756524820187068
0.0772668947069923
0.0788924407697876
0.080470092213716
0.0821442422902359
0.0838737376736323
0.0856898452887959
0.0874441744561454
0.0891036732690749
0.0908379358487421
0.092324329513613
0.0936368672779055
0.0950097957826302
0.0964985033220466
0.0979747394554856
0.0993705357814192
0.100814331220311
0.102323714008777
0.103872444117846
0.105379362367331
0.106692147753417
0.107974022526308
0.109247521641049
0.110447463548756
0.111609205362241
0.112530679951826
0.113247086456047
0.114098966361352
0.115177570918672
0.116117100180979
0.116982071559671
0.118042991858127
0.119406452450216
0.121220518356832
0.123470037181174
0.126098611612679
0.129074043570339
0.132249427926001
0.135587257727629
0.138752485455177
0.141993386452496
0.145528299536504
0.14897231563744
0.152334495674832
0.155898890750324
0.159571881561545
0.16317883700651
0.166838327738195
0.170698381040355
0.174401704310708
0.178112713586226
0.181903587074078
0.185604780209491
0.188812983119568
0.19140962588421
0.193673579762647
0.195805109546895
0.197522522684244
0.199033234359612
0.200513670178321
0.202021952882305
0.203518158652286
0.205021700379594
0.206543053276344
0.208052125696901
0.209681312080184
0.211569152351408
0.213030885623833
0.214133990815239
0.215237280913555
0.216275964660696
0.216961626897312
0.217170914686057
0.217105667233296
0.217239956445332
0.2172459790054
0.216856953336501
0.216482683046945
0.21619018233288
0.215434072569607
0.214381726257102
0.213398314270052
0.212236725159593
0.210487515773052
0.208602225254782
0.206661195099713
0.204676960843557
0.202245531895176
0.199528833540258
0.196946822732942
0.194261889220291
0.19143805360257
0.188838035467811
0.186257381094854
0.183377240351943
0.180529670540717
0.178103652666629
0.175686026769572
0.173173502522289
0.170948642249299
0.168722232733645
0.166799333857444
0.165349772596848
0.163973358072638
0.162571921931667
0.161280728626352
0.159921202512257
0.158621097997287
0.157220182748304
0.155675675815751
0.154620983324995
0.15370804948247
0.152525846825299
0.152002350734531
0.151865987328232
0.151792507012785
0.151862438853924
0.152051775801291
0.151922172331317
0.150728383754258
0.148617182010849
0.146177139768189
0.143438143987155
0.140137170723101
0.136882672618579
0.134032671901137
0.131259922504752
0.128497394181316
0.125855376815471
0.123447250382484
0.121171814603875
0.119019848060984
0.117268302553478
0.115611454629929
0.113892284546139
0.112330654531696
0.111193077020421
0.110045834272675
0.108311194927683
0.106356387869793
0.104584202204007
0.102964284230041
0.100805531833579
0.0982213361728873
0.0960355047861283
0.0940078222312239
0.0917623430788913
0.0892677123782128
0.0867992593598277
0.0848814757154582
0.0836681688982892
0.0822226113391438
0.0802849661357993
0.0786411004171826
0.0776218077395636
0.0766699358893097
0.0759307285517101
0.0752947821946434
0.074943927137173
0.0750350896925021
0.0752575120059244
0.0750657863495206
0.0749383410611063
0.0749086853791823
0.0745893878879006
0.0737652981439984
0.0728583233511084
0.0728486410284316
0.0729922435293199
0.0724912376023829
0.0726887488847135
0.0739311867987534
0.076080927951759
0.0794169072131601
0.0846868307195439
0.091828420172746
0.0996674853364015
0.107898193084838
0.115437108021072
0.120474938713637
0.123412901923416
0.125417176111207
0.126993779176952
0.127981610406039
0.127972018105495
0.127981587053448
0.129961090709415
0.13305916027113
0.136234072903409
0.139703847269822
0.142764863299224
0.143502632684284
0.142204346056274
0.14067362709701
0.138549554808581
0.136235586254975
0.134676685577184
0.132929741028513
0.131846521124183
0.131557729801114
0.130338979238004
0.128410738414533
0.126876679220289
0.12486418720989
0.123169670152073
0.122403931090932
0.120728745981553
0.119312886174443
0.118681649045457
0.117875649129481
0.116705390761906
0.114676693506867
0.112117620564027
0.110297002660542
0.109589471747529
0.109268365317496
0.108700522992023
0.108173895373374
0.107867704135175
0.10711104251779
0.105726170993498
0.104244593867964
0.103015407535967
0.101958763663844
0.101108275902485
0.100731336770623
0.100437484754394
0.100437763595106
0.100388466514843
0.0995228769854663
0.0992488900810525
0.100880731823418
0.105106485951053
0.11055557492448
0.115044245938333
0.118211241938039
0.119655175766881
0.117522229319861
0.112696656768385
0.108795776564835
0.108767962689613
0.110684217249748
0.10819071075723
0.105413531020428
0.106184402074282
0.104786315690637
0.102678840971373
0.103269161719542
0.102294238340902
0.0998607562502426
0.101260898296696
0.101830540489088
0.0995802887866527
0.099499129998002
0.101479119882941
0.102953803633673
0.103911397860194
0.104852810637737
0.105837275924251
