1798
3999.43349933624
650.420452594757
1
2
4
0.0105230309074586
0.0103785921353888
0.0103094495105497
0.0102953110103806
0.0105542560884118
0.0105219893926198
0.010013089433711
0.00982041045537113
0.0101623112045137
0.0108512967729971
0.0110183814902401
0.0105968149254548
0.00988196065705909
0.00983079293164056
0.0100423195972191
0.0100917516076473
0.0103633432863874
0.0104912807092702
0.0102959925823053
0.0100461375503731
0.0102170674227029
0.010455083926167
0.0102741879159161
0.0103362566439792
0.0106366227503638
0.0103497759151679
0.00978516274180107
0.0103482224349614
0.0106166875850565
0.0103019639676654
0.0107783085261649
0.0108208635869206
0.0103152160001542
0.0101053662278443
0.0101686993081225
0.0104264586832247
0.010476240273269
0.0104800533022357
0.00996666194712205
0.0100206605356147
0.0101313519263429
0.00984923162472712
0.0101889291659088
0.0106055838884041
0.0104821857254124
0.010408595481765
0.0102531981297797
0.0101298701752988
0.0101377423876216
0.00999894249415051
0.00997642512143138
0.0105547343913621
0.0107658881720966
0.0101945080675655
0.0101418713421451
0.010235820541199
0.00997449829747504
0.0100846776754877
0.0102042467298306
0.0100675194678308
0.0100647436719905
0.0104186761245913
0.0106578679266075
0.0108253068514572
0.0105070368483973
0.0103174366652686
0.0103739525947247
0.00974402765173018
0.00930716019882573
0.00971232811421399
0.00960991500940289
0.00981471317045785
0.0100415033152876
0.00990096126833576
0.0099499228859405
0.00975568472481038
0.00953432820854868
0.00957666819772703
0.00974969926977531
0.00983076635097577
0.0101493179886888
0.00993522031422685
0.00964908189229572
0.00944749299285582
0.00930156302436859
0.00966802985784777
0.00997717767504192
0.00963963571381587
0.00959178758076808
0.0101610123537346
0.00988862892951419
0.0102606871570588
0.010576488418507
0.0101765730873963
0.00966124270917399
0.00930112463738838
0.00927614009474743
0.00949136100331456
0.00948510581060301
0.00974361797497757
0.0102234446188016
0.00989432967910139
0.00998383379397282
0.0102984974109736
0.00951579510408362
0.00947688188315526
0.0101977997533371
0.00993357898112941
0.00966148190449749
0.00988712819200463
0.0096262695121579
0.00970056834624841
0.00993046241620775
0.00964295442938735
0.00956775940222834
0.00963509449456398
0.00940555186815386
0.00961902272880879
0.00967075373270268
0.00962070083299671
0.00956195694515205
0.00964641847503524
0.00984293002527808
0.00967064455461511
0.00948605444169575
0.00954364306631029
0.00933541176284527
0.00932422174565278
0.009611342345446
0.00965086193099698
0.00948545470987137
0.00902320197483317
0.00943508815692182
0.00985164948887815
0.0091276202575873
0.00860502528788686
0.00837017354523851
0.00778682120025601
0.00830310398331783
0.00890734653000431
0.00904049379393623
0.00919937208982932
0.00928245149165823
0.00903977376166407
0.00903893939368334
0.0092686504328043
0.00896952149316178
0.00891412779365652
0.00929697408253572
0.00991113965603571
0.00977976423543313
0.00887290258913874
0.00870751014918993
0.00961368570602028
0.00982475104557158
0.0100016515042663
0.010296168316462
0.0103246733245307
0.010092657398833
0.0103355578621847
0.0109889717111921
0.0106925697522504
0.0103338853130044
0.0107414875190381
0.0112050598225647
0.0110667415640074
0.0114511955571645
0.0112966429666362
0.0105246748802306
0.0102202948493712
0.01061940177808
0.0108718920307669
0.0104681183294044
0.0102449021636612
0.010138369763606
0.0106364638912246
0.0113624107650166
0.0114451650919519
0.0119062909894607
0.0118480251233976
0.0118029444628573
0.0125456489522134
0.0123998521348044
0.0123283981640557
0.0129148602324164
0.013041655060022
0.013114313642465
0.0133665113983075
0.0148689459920228
0.0149354971068668
0.013629592772248
0.0136477605507004
0.0143374961530307
0.0145639717949841
0.0140536473999157
0.014277934111751
0.0147008444106847
0.0148639034319896
0.0153809136127276
0.0158162059016911
0.0160418724920213
0.0164939623296052
0.0164438310725369
0.01656096320702
0.0167192928264107
0.0164309274505151
0.0163708035721425
0.0164674125070235
0.0163169281878887
0.0174865473645137
0.0183595646963046
0.0180343895160689
0.0175752524417036
0.0168421523660916
0.0159977978806788
0.015657726467784
0.0157604622235038
0.0165107097306401
0.0174130843140493
0.016730710316669
0.0162324067423483
0.0169341307238477
0.0171024857083575
0.0165781210094058
0.0169834711544247
0.0174509796896768
0.0167685102937479
0.0158110973008527
0.0164016147002322
0.0173365629312492
0.0166692666781296
0.0166164050311253
0.0174561357814057
0.0163890057275493
0.0161414650638956
0.0176868353662209
0.0181178516201156
0.0177873123021804
0.0169088179546939
0.0162947796421493
0.017395780089217
0.0180346631963521
0.0185396654227669
0.0187693466918099
0.0182193138861337
0.0175504874098716
0.0169793780217291
0.018740560578278
0.0192259793936318
0.0182229207878437
0.0181310032782662
0.0186751113782079
0.0186569217301658
0.0186398917757911
0.0190459855544311
0.0191414711757133
0.0187404409925114
0.0184329622172807
0.0191352614371283
0.019653700686486
0.0197426421981816
0.0203666276193817
0.019938181415506
0.0191159039700937
0.0192699983480824
0.0203099178367435
0.0202455378691041
0.0194487375599714
0.0187119366430436
0.0186454917327242
0.0202251011594961
0.0208949101334991
0.0198729768682859
0.0195970297789915
0.0202744588581582
0.0200024199344037
0.0204901192616123
0.0207296402941121
0.02077352808352
0.0210709690910019
0.0211423091959287
0.0219294731289514
0.0220402066359618
0.0220639524554503
0.0222071209108736
0.0212041260417705
0.0203290141098599
0.0213485702706015
0.0215780736461845
0.0213705188335248
0.0216123880539295
0.0219951328822735
0.0223935357662748
0.0225906559848129
0.0230578762710324
0.0230455901535182
0.0230847974699486
0.0226729366920438
0.0225860823605842
0.0229723297246503
0.0227385316125235
0.0226196443489294
0.023001520776893
0.024011905265082
0.0238310628318276
0.0226954742428789
0.0234288370926431
0.0242066692973796
0.0240022280015965
0.02366020991507
0.0236461330727495
0.0235906401610902
0.0241420234866896
0.0247936078366658
0.0245948526228755
0.0236469712667991
0.0245433718493399
0.025930102102463
0.0256334463838361
0.0255780841397498
0.0261364059314628
0.0260874603739441
0.0261099699184502
0.0257187206994281
0.0253598977009775
0.0250037905356904
0.0242690508167655
0.0246768160619837
0.0250207451751852
0.0250103884272757
0.0256442242905737
0.0255612394323704
0.0250309957242202
0.0257336496244506
0.0271275746863941
0.0267279988823737
0.025458953210749
0.0256451945935096
0.0261854857164991
0.0266214289167795
0.0269344389561463
0.0270075301414702
0.0258239068766587
0.0254679124872242
0.025834743726566
0.0260822498483489
0.0266429249801462
0.0267169343269095
0.0262321528341107
0.0261342469780148
0.025817657310328
0.0260397688180954
0.0264202838857856
0.0262608177630719
0.0262583424246329
0.0264504205873559
0.0265444477833094
0.0269411157599315
0.026716216460805
0.0261129065404359
0.0260569727063064
0.0267613128556515
0.0266766215515993
0.0260393619965828
0.0260398064880856
0.0260481583347478
0.0266519555957029
0.0269673530230508
0.0265558670052201
0.0263094899921282
0.0264836793431327
0.0271736266186968
0.027224593354461
0.0268421185060387
0.0267255222779272
0.0270112884911542
0.0268244432358273
0.0261296416866542
0.0267438667319942
0.0279275755224966
0.0276580980262522
0.0268770337216312
0.0269602479962257
0.0276686820059876
0.0280098677635001
0.0274774765243291
0.0270221079099851
0.0267783118361181
0.0263280798492545
0.0263712148499307
0.0269265405440257
0.0272226575812889
0.0272699866111689
0.0268186137071099
0.0266187541339691
0.0273612350210752
0.0269731597205251
0.0259117762155825
0.025599785777763
0.0257799635328911
0.026221889918784
0.0263460215525208
0.0269157333064557
0.027421228817236
0.0266988703822204
0.0264923078497185
0.0265520470531691
0.0259724650184321
0.0253429629411286
0.0256399876993047
0.0263729369961936
0.0265764387404756
0.0263552927209879
0.0260707109214612
0.0260608656203044
0.0258485330562358
0.0257456793917804
0.0258273303275797
0.0255945959255776
0.0254928720955116
0.0248680485336588
0.0244749802393428
0.0251174353888539
0.0253513317082001
0.0254999712797998
0.0258285802834198
0.0254819861366513
0.0251651214566929
0.024770637643497
0.0245918727969129
0.0248196896617749
0.0251060313838282
0.0250540576778018
0.0251673576499868
0.02541916862577
0.0252212695807049
0.0247185651037769
0.0238629487135296
0.0235907318393534
0.024137844359567
0.0242766340503343
0.0241431128598897
0.0241745482711745
0.0242377414304699
0.023711506117296
0.0236986666585012
0.0238603836187042
0.0237925530625213
0.0240050830890287
0.0237361456270956
0.0233667870869063
0.0233599632023855
0.0235932328055488
0.0234017090065582
0.0227326172929055
0.0227986114329237
0.022917667166008
0.0226540282527826
0.0228106084510253
0.0229053071993376
0.0225064832159751
0.0223514252714637
0.0223518450210421
0.0224694885355623
0.0225352763414422
0.022312969340198
0.0226589924343421
0.0227693051948514
0.0224038712955343
0.0222653321985418
0.0217363101491212
0.0215847267001356
0.0219370577836995
0.0221228998113657
0.0221086320113822
0.0220515592410933
0.0224088109488213
0.021878970287186
0.0209849851526111
0.021274297771156
0.0215048686981365
0.0211294015533335
0.0209674326105617
0.0209699061996654
0.0211113246189948
0.0210349563091721
0.02095812872498
0.0208573872907251
0.020547097300345
0.0204490172488929
0.020503394273008
0.0205442458825924
0.0207365048373072
0.0210104881552726
0.020901750729165
0.0206406465822765
0.0204640809751294
0.0203070955366109
0.0203945537577242
0.0205034281978282
0.0203545925446652
0.020625426693529
0.0207539677421229
0.0201570538320555
0.0198771611273925
0.0199790543370764
0.0200104479104849
0.0198596843330094
0.0200408582724358
0.0200963515854467
0.0196801886960167
0.0194226362326397
0.0194973356695907
0.0195168257740415
0.0194165101852696
0.0195083401922958
0.0193069508129055
0.0191442162251256
0.019420568900832
0.0193825969923573
0.0192159703611489
0.0194216168493793
0.0194732719251928
0.0191798308253242
0.0190617507645754
0.0191939056386832
0.0190002353466796
0.0184908219635006
0.0186971171587315
0.0190479699940025
0.018551788830186
0.0182371914447518
0.0185900339014586
0.0186767096398144
0.0184700327517376
0.0183518731325924
0.0183736404794652
0.0183874332804809
0.0184302956919973
0.018464929109697
0.0183622479925707
0.0182141653001189
0.0181981056384679
0.0184863068423301
0.0186860536964183
0.0185928417382963
0.0184549411546641
0.0184985724756812
0.0185906685950386
0.0186336036932716
0.0186669585519448
0.0187576486750678
0.0189491229757208
0.019085613260016
0.0191665424383197
0.0189102937367473
0.0186431447604279
0.0186565694857589
0.0188941131504224
0.0192444562720588
0.0191537164795216
0.0190024935720988
0.0193166898067099
0.0193306917094393
0.0193117445954343
0.0198004898545464
0.0198559883982855
0.0195309492792105
0.01953505196942
0.0194345410880646
0.0194710917182987
0.0198383134384945
0.0199010617893199
0.0198234113879531
0.0198111856859029
0.0197971546681654
0.0199256117227051
0.0201596977817495
0.0201252810573307
0.019854156181002
0.0199877512713315
0.0202101335600089
0.0198363264418555
0.0193990429650113
0.0192233207878088
0.0191556902504355
0.019086075121154
0.0188375315709796
0.0187056175357733
0.0187893057800157
0.0189007092812874
0.0189217507326605
0.0188115061523124
0.018829686941418
0.0188035981614488
0.0183397427108238
0.0180218799246024
0.0181139054196868
0.0184640974044089
0.018738396226631
0.0186153690464602
0.0183077541076798
0.0183430986172204
0.0187689708193022
0.018749839468939
0.0183459381507786
0.0182430786053543
0.0184127520023984
0.0183359990904365
0.0180803712916655
0.0180322528142446
0.0179928488798598
0.0180796731284595
0.018275116736751
0.0182589630827563
0.0179515814606021
0.0177154918146486
0.0178258003933006
0.017851244237868
0.0174808970841984
0.0172848314851232
0.0174229421222407
0.0176148792789263
0.0177288870392399
0.0175360895232173
0.017250302049691
0.0170850523560899
0.017132387726626
0.017094920394081
0.0167995156516313
0.0166145997290838
0.0165076689036124
0.0165419768025542
0.0164689032977614
0.0163609342075075
0.0163088060871302
0.0161896965844726
0.0160671309904972
0.0160724682157551
0.0160835969043471
0.0161159101695412
0.0161905207691021
0.0162241056056623
0.0161314910217917
0.015989253377601
0.0160149345072996
0.0161296542686819
0.0159842067700796
0.0157632013649894
0.0157117988705484
0.0157209021879236
0.0157260428766441
0.0157491322281858
0.015780065530501
0.0156357339825183
0.0154193587036253
0.0153110126593375
0.0152725854606834
0.0153015636795645
0.0154553586239907
0.015452430469276
0.01545528959159
0.0155117100038259
0.0152540161784119
0.0150484859901748
0.0152047878139001
0.0153291017048722
0.0153649867023682
0.0153642557041955
0.0150241274816346
0.0148616164421519
0.0151410664393962
0.0152763411891398
0.0150869663431502
0.0150087787795937
0.0149570623771083
0.0147932907989776
0.0147288642958782
0.0148260520276629
0.0148476084541058
0.0148930912525248
0.0150056246871247
0.0149923067832918
0.0150300365973876
0.0150120867003859
0.0148841560572203
0.0147952741612042
0.0145890241728452
0.0144667280479068
0.0146035341633206
0.0148437272690569
0.0147954819563203
0.0144723246795171
0.0144469049147576
0.0144940719980878
0.0144568322648523
0.0146313275126022
0.0147880014253726
0.0147169596241847
0.0145615670483762
0.0144454878238355
0.0144265558053057
0.0144801430038559
0.0143418006419646
0.0142648769853656
0.0144001540906725
0.0144438166922608
0.0143333743348141
0.014373983190824
0.0142613518596259
0.0140889360527786
0.014065753851662
0.014183544194021
0.0143550886877062
0.0143630632051253
0.0142304434846049
0.0141907487358961
0.0143814458441054
0.0143969491688977
0.0140937950781253
0.0141228424184749
0.0142980058204832
0.0143625080712055
0.0144315020703809
0.0145073651344082
0.014591190581109
0.0142301009479279
0.0137949352669757
0.0140070597594727
0.0140836591557267
0.013838213492
0.0136684954854498
0.0136846116831926
0.0137966262341424
0.0139095885014538
0.0139022860477021
0.0136748996229537
0.0138390739209266
0.0140672199656158
0.0137886083640675
0.0135504355165985
0.0136066040333812
0.0136855517838466
0.0135931615712923
0.0134518862731944
0.0133188876622223
0.013435235023826
0.0136467977814537
0.0132353420822878
0.0130950499519205
0.0134973681003306
0.0137299317158238
0.0134628924786128
0.0129486478512738
0.0124545118179547
0.0123725258319278
0.0126263994900471
0.0126975018307526
0.0129474312895435
0.0131901767688524
0.0131189251589527
0.0126697975088438
0.0122429901508009
0.012250345401914
0.0127101980213452
0.0128258657253147
0.0125405003220938
0.0124997385398102
0.0126318743228063
0.0126018035363967
0.0124573163885375
0.0122425686989019
0.0119426240490414
0.0118120771554929
0.0119290676384947
0.0123019876035016
0.0126438533942214
0.0126425548761651
0.0125640322624888
0.0126315849557491
0.0122923708856685
0.0118179688447962
0.0117620980770632
0.0116705257393201
0.0117099720367735
0.0120610448588852
0.0120258362854156
0.0116283344689824
0.0118480606721352
0.012129407756311
0.0120983709108763
0.0119519725906073
0.0118661833139751
0.0122773129126266
0.012289820424747
0.0121276789782964
0.0119422210932565
0.0116757740623631
0.0118920640978598
0.0117968625047495
0.0111850221427021
0.0115647763719818
0.012122812223502
0.0119482905507377
0.0117633595185017
0.0117712401995346
0.0114657213404331
0.0113029638937111
0.0113297066339212
0.0114483985357798
0.0118274090313436
0.0118286622624453
0.0115278203391036
0.011220844366982
0.0111747745971621
0.0112523905538348
0.0115228740466513
0.0118427897826283
0.0116797202763824
0.0117432170256503
0.0118470262136813
0.0114809116421974
0.0111038452248413
0.0112609899729434
0.0112030316069599
0.010815334213993
0.0111569907916462
0.0118220479405649
0.0124164134379355
0.012430742645336
0.0116204421839927
0.0112607699559292
0.0115560767706074
0.0116785118316411
0.0114779846071325
0.0114733922238453
0.0112193711125809
0.0106554086346209
0.0104274330133847
0.0108442850288295
0.0112970255123007
0.0114354584206154
0.0117733929788655
0.0115875472397771
0.0114274760089309
0.0112782150246191
0.0106963245861633
0.0104583309853378
0.0106873428207338
0.0111937128050975
0.0115399521827549
0.0116408652317078
0.011279959800994
0.0107465884715107
0.0107260375224391
0.0108969138383376
0.0105524602651935
0.0104318125657977
0.0106671263618804
0.0107205338673187
0.0110281244910829
0.0110725826395047
0.0110514544959403
0.0109959874490956
0.0112860928330603
0.0112822851527166
0.0110762273869863
0.0109150913886678
0.0108383440957247
0.0107092825271894
0.0111156100245247
0.0112470065552694
0.0106650209075545
0.0101892933969576
0.00998528899851068
0.0101726823791212
0.0107691099331634
0.0113859129753637
0.0110192220513538
0.00976581885506935
0.00977690967915638
0.0106719307595756
0.0112417800064017
0.0112409966595417
0.0107016263523433
0.010298034172263
0.0104356417804721
0.0109264696260422
0.0114029217672184
0.0111155588420942
0.010453375644439
0.0106524370665864
0.0108445706863825
0.01057638825424
0.0107765493463804
0.0111230794926938
0.0113872488113977
0.0113603986377266
0.0111548203167157
0.011350298710234
0.0114408888489402
0.0117565072084701
0.0121534184386111
0.0116978197033018
0.0112424037344025
0.0109578527875978
0.0108983457659597
0.0110589606417428
0.011159771134375
0.0109116166625424
0.0106195436523883
0.0106155202922503
0.0105200270368363
0.0104202045377869
0.0106004867564174
0.0111890365152016
0.0117076412072794
0.0115975581999308
0.0110747634333313
0.0108476513207712
0.0105359575153267
0.0106351557502916
0.0106434808330286
0.0102938998109464
0.0100978611604402
0.00952896151274759
0.00942103396981778
0.00902198457464134
0.00910834619747717
0.00989345647997028
0.00960920665514509
0.00888060078100334
0.00904913422455474
0.00953112566008599
0.0089949891108509
0.00883265710174195
0.00872423503581261
0.00921696906004795
0.00936099811278859
0.0094037030265249
0.0089760708217529
0.00809118285877835
0.00747492652598378
0.00749034626524606
0.00807570795953868
0.00839001369017426
0.00727991420359129
0.00664350171764543
0.00739561213539786
0.00737053945337802
0.00697834237500061
0.00761901231916643
0.00796402395095093
0.00788663183520624
0.00838526181618311
0.00748155207016126
0.0067885547886115
0.00708374161486494
0.00537332047562068
0.00495585609408872
0.0068034454934483
0.0081214369137846
0.00792563945183567
0.00652410977735552
0.00567418261624069
0.00654733219399657
0.00765650707444476
0.00813802574709234
0.00797676505520172
0.00648088418889408
0.00513090629090853
0.00441555254676265
0.0047068209997941
0.00581752204326409
0.00588862522339072
0.00616564519271128
0.00528914828829281
0.00309449327754406
0.00351143070543967
0.00546223455729427
0.00469208322949418
0.00327465789287026
0.00392001939478343
0.0031373987008124
0.00209022315810007
0.00297277940225992
0.00453304200124565
0.00266268615338347
-0.00233994186695306
-0.00272391493566123
0.000518114487347234
0.00199245124165828
0.00360188109957449
0.0051698762118077
0.00431232883975826
0.00353275632227967
0.00430742329454724
0.00462720319839665
0.0052060530841688
0.00568822233826303
0.00533213839032032
0.00507365208281636
0.00499939457682386
0.00621625461993563
0.00684865461038109
0.00703315498020591
0.00718754952437498
0.00721497435654069
0.0076645778005581
0.00813010421509108
0.00804701712618289
0.00805186808699063
0.00788566290909832
0.00782450207441026
0.00752329631785085
0.00704877884859876
0.00681064544282383
0.00706765879285579
0.00714413839474822
0.00687265116272136
0.00717156979420476
0.00783128793647461
0.0072740530412315
0.00625134351021321
0.00666802668142079
0.0070791197373356
0.00733792016134544
0.00727410733777163
0.00658282810090119
0.00666271241558494
0.00729074473086178
0.00746463822321707
0.00692605213329329
0.00654307533732354
0.00666790067984218
0.00705945833708487
0.00673371212431489
0.00591629720917797
0.00514216927869815
0.00549760946913554
0.00612335641470647
0.006199988781619
0.00614230852980099
0.00533998885847771
0.0049503447331547
0.00527064675251158
0.00531731435217063
0.00491225254680691
0.00404298214790037
0.00310904468402269
0.00325474434203382
0.00370211910650177
0.00291089503216677
0.0026221382838637
0.00406440326859259
0.00258995835089923
0.000921403173640614
0.0027237398615249
0.00378944057295165
0.00284700897576629
0.00181506589522607
0.00107519851102783
0.000988637156324678
0.00164164505624309
0.00177969335769124
0.00207202304020842
0.00381355542554103
0.00474847766950128
0.00370638335432504
0.00301622247437559
0.00311190615510703
0.00325173646441203
0.00410142190564917
0.00464658120561393
0.00406578569410097
0.00508311497203983
0.00590145669421506
0.00394627239850875
0.0032217818202302
0.00371842613674011
0.0049832281806048
0.00480071951702193
0.00323969553741575
0.00351081684691095
0.00553819317745886
0.00559776129317971
0.00391029436668272
0.00376058524007425
0.00389116746290472
0.00326690521027654
0.00393607072258314
0.00482655566234978
0.00413667709155907
0.00405647520065801
0.00508727075306709
0.00543992737335753
0.00581560931690054
0.00574939633034654
0.00540411581653026
0.00589194743527767
0.00701097708799908
0.00651535924933081
0.00566500998413107
0.00559801913846999
0.00553908791722857
0.00648909048298998
0.00709000156773698
0.00657352776877191
0.0066102052809537
0.00726729517905418
0.00728051308775307
0.00710456888859361
0.00731899963351367
0.00742139232900703
0.00712132184485826
0.00695804055065048
0.00735930088994828
0.0080823178101871
0.00808867115176091
0.00757814976672609
0.00756798592048359
0.00783310172065363
0.00804309942258963
0.00790370157347291
0.00731304283754954
0.00738602956965032
0.00805978440912728
0.0079199677096121
0.00777106993119179
0.00742384659517863
0.00731263814252422
0.00772355141970437
0.00791130307266465
0.00770844112623044
0.00769918699136229
0.00785151464819199
0.0080967979684625
0.00824075928438539
0.00827115939084821
0.00794786616501469
0.0077951822696972
0.00803743507564193
0.00801220155402269
0.00804161041289719
0.00853785723262988
0.0085571426158392
0.00807798295058765
0.00795137329587042
0.00797847085658887
0.00776462921956823
0.00779782120634708
0.0079149219917246
0.00786541907329683
0.00791924158975101
0.00838023504938393
0.00853862820038241
0.00862810753392913
0.0088231483371687
0.00856356764875028
0.00805830851946707
0.00784560605804315
0.00818937672359746
0.00852775841706686
0.00844161962869677
0.00828210568472979
0.00831289034937502
0.00837958483993514
0.00829269167849529
0.00813724731258373
0.00809719577343455
0.00815428768161965
0.0083278476094569
0.00830432105191489
0.00828736097551479
0.00845322628586089
0.00842804084714566
0.00839525371256081
0.00850675886480796
0.00852639076630715
0.00863990153126774
0.00883014722906373
0.00876198482739328
0.0086257843975045
0.00868234850878679
0.00891587697124613
0.00872758157235902
0.00856689422794467
0.00868782249519299
0.00861518437536307
0.00855828989301976
0.00862270451773314
0.00888564903408424
0.00876127482245086
0.00857272522890667
0.00863453453193808
0.00888723862957653
0.00914366280909921
0.00924646620404031
0.00891383565649558
0.00872830608304183
0.00912893656365641
0.009485831748471
0.00936570824902832
0.0093844324552302
0.009444923752435
0.00922372457784417
0.00924512698299304
0.00941472866525045
0.0097608326976899
0.0100498364901757
0.0100680590632573
0.0101088631815288
0.0103540550191154
0.0106144243053158
0.0105933702477628
0.0110548836983005
0.0112513445488164
0.0106389950176771
0.0106568258003973
0.0109799993490546
0.0112307671839232
0.0112592488740471
0.0113080404719524
0.0114114098631708
0.0118125039159671
0.0119839304497634
0.0120583512725575
0.0120091110588851
0.0118677243719002
0.0118640795797064
0.0121630757082567
0.0127304509785186
0.0131013867012302
0.0137245947140694
0.0144019217752019
0.014031559780231
0.0145265640177805
0.0150549274354275
0.0153839146240714
0.0159511877267319
0.0166817225601182
0.0172837412372201
0.0183054843078869
0.0189056047103388
0.019202961842926
0.0198240620412515
0.020404008055698
0.0213426697121679
0.0218770481194824
0.0224440286845081
0.023254243008572
0.0237543942543068
0.0241340781073306
0.0248893902672411
0.0257964015355326
0.0263034087460796
0.0267618143831589
0.0272701573562052
0.0282845550892853
0.0297479657292656
0.0288780457795329
0.0285678772139414
0.0292516788349778
0.029701506065311
0.0298732185440687
0.0301886534212237
0.0308622201331037
0.0314547603181031
0.0318267582807743
0.0315931868136198
0.0313052561935223
0.0313480404360265
0.0313731939647036
0.0314576462825213
0.0314428659048927
0.0314303220484146
0.0309048279987413
0.0306623672735474
0.0312091216846623
0.0310504652637064
0.0302255616412191
0.030152120494352
0.030040181182631
0.0299411545962088
0.0298804984521248
0.0297503746817901
0.0298611669282376
0.029854128354913
0.0295150932094604
0.0296324081742856
0.0299521489363663
0.0297075675643571
0.0293182883259416
0.0295768145884613
0.0296116066450939
0.0291445042251484
0.0287778462736384
0.0283925808214013
0.0280558511447096
0.0279764097506477
0.0280023316558928
0.0270285742992764
0.026294384267288
0.0264564378046099
0.0265789382254725
0.0260876506396882
0.0259580791134566
0.0257424977936975
0.0259166453494265
0.0269447451361764
0.0261385395602845
0.0248885376524359
0.0249743717151218
0.0248234800418924
0.0249755916943587
0.0249653798465515
0.0247893024150673
0.0248487803082211
0.0246581601840131
0.0248682007658749
0.0247263725489822
0.0235432001658954
0.0233669783363011
0.023969200868154
0.0233483498174561
0.023021631478517
0.0230990595967069
0.0228339755865332
0.0225415826958258
0.0228267927955527
0.0227652214099093
0.0223373444078358
0.0225316769657828
0.0223376521145917
0.0222989483765572
0.0225453124373685
0.0228113611054419
0.0233520354856137
0.0227078347522801
0.0215072267435666
0.0213646496528569
0.0215185377017514
0.0214390755699041
0.0210187374451143
0.0202281482321673
0.0198101570886005
0.0198592781228216
0.019378817930665
0.0188152882531122
0.0184339684351597
0.0183432353727007
0.01831501202311
0.0181509332364144
0.0182633062309246
0.0185544612281816
0.0188574829027783
0.0192945021081612
0.0192732743525127
0.0196284552649682
0.0203488713294523
0.0209542214442086
0.0208289907667838
0.0211186649064238
0.0219179332166548
0.0227075297408661
0.0221259886625291
0.021676389001867
0.0219244810330474
0.0221169335111281
0.0221854543967498
0.0219819348756656
0.0218393867310816
0.0217624181259309
0.0217921692080307
0.0221489010302098
0.0226284839118023
0.0222595936059839
0.022342446592223
0.0228014482955881
0.0230904409646267
0.0234376093969555
0.0241337165464691
0.0245490308460901
0.0245428458033364
0.0251191496961967
0.0252321385723532
0.0246874506870584
0.0246037885169819
0.0247217936914345
0.0247462681424011
0.02453416151658
0.0244486521477041
0.0244200159538069
0.0239884203166394
0.0238286700715864
0.0241215922642778
0.023840195282877
0.0236918731819196
0.0235141195835316
0.0232145021114888
0.0231793247476319
0.0232302447111716
0.0231319717846431
0.0228000557263581
0.0227027034656065
0.0228226576746691
0.0229090154410988
0.0227950792141853
0.0227537636060697
0.0225964952523143
0.0223070181017862
0.0222002311960901
0.0221942810518962
0.0220004039281109
0.0219673351198998
0.0217966291978984
0.0212957111781443
0.0211230726841119
0.0212673787716161
0.0211494348663915
0.0208005283550762
0.0207232281102091
0.0208037177842378
0.0207671887161545
0.0206291205083775
0.0205502991883274
0.0208103888809666
0.0209945736138538
0.0206974661753065
0.0205883280008839
0.0206973247679349
0.0207806274578736
0.0208404295048715
0.0208794827853162
0.0208863958836709
0.0208360954887432
0.0207112968278018
0.0205802547480346
0.0204677030461045
0.0204193230932071
0.02027877962632
0.0201177909457555
0.0198539700273928
0.0196278699402846
0.0195443213256789
0.0194495677808452
0.0192779983095318
0.0191397263324512
0.0189735214800039
0.0188443340996836
0.0187494981792637
0.018651631533305
0.0186007431383735
0.0185670002855859
0.0186801754946967
0.0187087093425076
0.0186603270392855
0.0187272153140827
0.0189081189870596
0.0191183610865528
0.0191844221486299
0.0192264807405135
0.019306644910235
0.019362443057179
0.0195135072152097
0.0197065318364679
0.0198539443142595
0.0199197769161116
0.0199385481810316
0.0199708485898566
0.01994029178826
0.0199000304198431
0.0199216372243564
0.0199884235982088
0.019969438391832
0.0200040881288868
0.0200900786741094
0.0201049950150102
0.0201703106023343
0.0203026647692214
0.0204166613190285
0.0205023998591466
0.0207076693328665
0.0209250332449892
0.0210059219128747
0.0210904629185902
0.0212528763982489
0.021296407696952
0.0214442104894735
0.021564079741178
0.0215341392996512
0.0216025263598269
0.0216894760861348
0.0217174506987595
0.0218924955917591
0.0220897773373748
0.0221395876885472
0.0221353991909359
0.0222298252978711
0.0224058918484704
0.0225667982840033
0.022756767193218
0.0230967765662437
0.0234106490915338
0.0235115283983677
0.023678452123025
0.0240168236235076
0.0243813121802977
0.0247667632321519
0.0252382180211484
0.025698740450313
0.0259542804964852
0.0263660450455274
0.026983988500655
0.0276318959716815
0.0283108176485877
0.028929217261446
0.0296864820775181
0.0306438112045501
0.0316877483667435
0.03288952469689
0.0339103893120784
0.0346242324974579
0.0350014269552324
0.0350399059105475
0.0350761220677138
0.0354246608773648
0.0361637090578994
0.0368879268449522
0.037675432005368
0.0384780943309077
0.0393237437580964
0.0400661313993943
0.0407701055816912
0.041626828204755
0.0425641353638415
0.0435816896829139
0.0447683710539785
0.0459725501968389
0.0471966206919775
0.0485660026308648
0.0499229433960697
0.0510627454727744
0.0521582029023631
0.0532309055217347
0.0542946259784078
0.0554032026160905
0.0565099968899825
0.0576379778334124
0.0586787658211467
0.0596779636935227
0.0606918044613448
0.0615376688626699
0.0625399948664947
0.063616157328449
0.0644157090918678
0.0652043079012827
0.0661118931884822
0.0671492039199216
0.0681540011010673
0.0690476674102694
0.0699683913035876
0.0708508355101661
0.0716177891417744
0.0721859441413594
0.0729304073330102
0.0738385857268244
0.0746700130898015
0.0754672427531491
0.0762781024387415
0.0771398958899229
0.0780556408583973
0.079018017565486
0.0802167670497931
0.0815821972026419
0.0832908000813255
0.0850035062514217
0.0866360732337851
0.0884068921836549
0.0904090744374479
0.092366316726322
0.0944203155776787
0.0965693958195538
0.0987015660862357
0.100996395380134
0.103589272674133
0.106010017663544
0.108436490217783
0.111164762194885
0.113953773446345
0.116463905006474
0.118994361461683
0.121359102677209
0.123401874221939
0.125206380940489
0.126753846342237
0.127868547870911
0.128767296236473
0.12976902708751
0.130785114206716
0.131507595054029
0.132387949321062
0.133420721945261
0.134495896983499
0.135568675874173
0.136611839709946
0.137404590294258
0.137882279822508
0.138160451288692
0.138393149602012
0.138182834383072
0.137862662351791
0.137500014296346
0.136852487548992
0.136154467180742
0.1354992283116
0.134757219772497
0.133820065809874
0.132730339049822
0.131583486921719
0.130320699697319
0.128829980352395
0.127080026464355
0.125095472876347
0.122980320450268
0.120868040613524
0.118810190125163
0.116624288510999
0.114186207092309
0.112156105570482
0.110041447846909
0.107902483176196
0.105904917657651
0.10392423782868
0.101987581463826
0.0999100276454124
0.0978643635626811
0.0962170903072002
0.094647464345761
0.0931047506999634
0.0918289194977349
0.0908342326373451
0.0897218043062308
0.0887423692252758
0.0880575958458952
0.087179895336547
0.08624684193182
0.0854547670688774
0.0845001824809758
0.0840000168274622
0.0837204001267
0.0835021522473135
0.0832400190327306
0.08316164085041
0.0829902419071958
0.0828944507672937
0.0831279851199524
0.083137322323537
0.0824794811214359
0.0812599882431529
0.0798297372932426
0.0782240355889221
0.0764398609621912
0.0747779570848553
0.0734040797114402
0.0720180388399352
0.0704552199701312
0.068960453709018
0.0676417580098825
0.0663626973547962
0.0655152003626525
0.0647800983728658
0.0638706180585903
0.0628852498138711
0.0619382450938808
0.061404000601894
0.0610344461053698
0.0602472380506192
0.0592201616235032
0.058323857283397
0.0572432620850033
0.0561668473705899
0.0550203709539018
0.0539312581819183
0.052817379864672
0.0517563192230167
0.0509908548768104
0.0501344040402053
0.0491376557703712
0.0485790908628131
0.0482397167422344
0.0475160794887176
0.0468202441414386
0.0465015246880667
0.0464089600028001
0.0467028151956301
0.047214977075795
0.0473717090075276
0.047630577366618
0.0478206063531818
0.0474780882889686
0.0477902491580947
0.0483539542947905
0.0481284122966598
0.0473822074423519
0.0470836653139473
0.0470647172620888
0.0469177135206296
0.046922080689132
0.046803801429179
0.047208461944278
0.0481193473277571
0.0491623217677064
0.0510992434063667
0.0538899929603145
0.056837523049067
0.0596586174598174
0.061885925688624
0.0631175967147408
0.0631218943719111
0.0625011779511456
0.0616096806761945
0.060857800101961
0.0605409668777187
0.0604946002200374
0.0608995619109161
0.0619286233651995
0.0635654129828446
0.0645496065218571
0.0648339683106262
0.0649517458388182
0.0643675555155139
0.0635437321657762
0.0626973388537577
0.0618827451160205
0.0607307052265433
0.0600344236688388
0.0598381846286827
0.05989106434001
0.0601481151241976
0.0602487659998703
0.0605226887744024
0.0599257374934927
0.0592647329967129
0.0592880846629546
0.0590101048103452
0.0588729266393636
0.0590066227089611
0.0580089807108995
0.0565669688814599
0.0565691299434971
0.0570923473555692
0.0564701745911505
0.0552142042014902
0.0543327898196343
0.0543747098758539
0.0549109295369007
0.055612747727329
0.0562222205046903
0.0559767979424918
0.0553664639381643
0.0559565711806935
0.0558824921589998
0.0550246211082346
0.0556173405340894
0.0558425069552686
0.0550304084906087
0.055201324441028
0.0575924890209432
0.0593478699279055
0.0597061342899163
0.061197119305248
0.063308421497073
0.0644658248376085
0.0645583531598268
0.0648114725980869
0.065055987496344
0.0653717742977656
0.0647681792414432
0.0626943227073501
0.0615958967007305
0.0615849951789919
0.0621481784215155
0.062687339268555
0.0626303602536624
0.0617015269404678
0.0599645102010745
0.0579020502149384
0.0569634380743243
0.0591984833624715
0.0616739813187628
0.0621502887702539
0.0604909962186433
0.0608761649508973
0.0621444124080427
0.0612090474334881
0.062675959464213
0.0644783776910384
