1798
3999.43349933624
650.420452594757
1
2
4
0.0174244404207572
0.0186655615538743
0.0187808120442979
0.0184252729436969
0.0185772094352913
0.0179825746184643
0.0176430222489865
0.0181860481945339
0.0178055415677912
0.0176745821276369
0.0181870954755284
0.0182209627497439
0.0182741521327596
0.0183019308700345
0.0181704882001565
0.0180542507678326
0.0180789964651993
0.0182008054739359
0.0184374812932669
0.018326499305116
0.0177272558737436
0.0177161004775909
0.0178644670642713
0.0179162759905495
0.0184832389330214
0.0188279803236735
0.018458424957206
0.0181607358866298
0.0182000612303511
0.0182405653122279
0.0183008604038034
0.0180405745834762
0.0176581353297853
0.0173350128295315
0.0174451161944467
0.0181934219026036
0.0183093692776205
0.0177120042191379
0.017711783392855
0.0181189722909136
0.0179655994374937
0.0175110628832644
0.0174424531404158
0.017645009865593
0.0177286954723668
0.0175588693332112
0.017461583792726
0.0175892311918709
0.0177610426649724
0.0180973303040157
0.0178961937157289
0.0176088999991975
0.0176812720914257
0.0180335828116713
0.017832567318666
0.0171182896244048
0.0173899949214273
0.0174109548876958
0.016801081835424
0.0172993288325135
0.0177267635867787
0.0171594679992076
0.0168085789696446
0.0165974579866194
0.0166716746648903
0.0174450395354674
0.0176763970140307
0.0175131668005153
0.0177680944616053
0.0171202472046647
0.0164978371293302
0.0171894100360533
0.0175367797105141
0.0167932432061124
0.0165042317195521
0.0171437650030546
0.0173097271490996
0.0170899168890153
0.0167936420698374
0.0160891713969666
0.015758204514614
0.0163050213769016
0.0170941368563092
0.0173707949940295
0.01694991592181
0.0169842508972795
0.0170424645984149
0.0167343703355127
0.0165639578755658
0.0166120282967487
0.0166879261729431
0.016698027050387
0.0167274560382269
0.0170141633310953
0.017253684615904
0.016716339477429
0.0168095718983286
0.0174736130773223
0.0170777118979297
0.0159780693986859
0.01570847780552
0.0164021617971412
0.0167681940304097
0.0163375566925188
0.0164251187830649
0.0170164016524515
0.016968671142344
0.0168607864381054
0.016598827082719
0.0164663508410335
0.0164880250488314
0.0164477999992166
0.0166633101163309
0.016805934691625
0.0162730054163452
0.0161775433712713
0.0166842691846954
0.0167603816017447
0.016291424402187
0.0162719782364299
0.0166831686365922
0.017063678706113
0.0170533552460607
0.0166937701574346
0.016065327578358
0.0155699935839832
0.0158078443246384
0.0164454568092003
0.0166238229838499
0.0164346008965769
0.0161421403747431
0.0163111383607642
0.0170231172834237
0.0175220356763587
0.0165694102401798
0.0162326501355259
0.016310531179316
0.0148563320132025
0.0142571382763839
0.0149015911765116
0.0157324910257554
0.0156178572753166
0.0146162970386484
0.0142838063994593
0.0149624189892742
0.0154188193640516
0.0150706332711473
0.0153522841052942
0.0157547097961609
0.0154727592803068
0.0154872697703625
0.0156312123238227
0.0159356956077742
0.0162460479550371
0.0156955531682872
0.0147986828769759
0.014835118364285
0.0156338862673295
0.0160168986652856
0.0163019137226237
0.0170596250429613
0.017687878582156
0.0178514515957976
0.0175386036469995
0.0175595748309862
0.0184878006081531
0.0185795973766382
0.0169698049380759
0.0165181121496986
0.0171931805575844
0.0173480474830615
0.0171768665870498
0.0175592821441866
0.0172706963225549
0.016753115682748
0.0167041264953031
0.0164591519447762
0.0171668544930375
0.0180242523799296
0.018601529314399
0.0187286584848168
0.0190667293151836
0.0197792123773994
0.019883892394826
0.0196500369889363
0.0198774985553811
0.0206987065116004
0.0215626876446967
0.0215010378090299
0.0207388078019788
0.0208490938696176
0.0214289946804195
0.0213454114608865
0.0215078720667291
0.0221021298239828
0.0228644029762576
0.0240062923625542
0.0249899165838176
0.0239090607944569
0.0225346308265018
0.022730040398724
0.0238873521638587
0.0253746491804785
0.0262157740356794
0.0262626431468784
0.0258602022481644
0.026079707064477
0.0267363294836848
0.0266476416270142
0.0265018343328325
0.0265230045519809
0.0267994509498611
0.0273436572825972
0.0272770693144368
0.0271044851799905
0.0280726959654095
0.028247670671852
0.0285856690495434
0.0299157579391343
0.0301490336097501
0.0294656732116898
0.0286662189409761
0.0282551155080516
0.029427475307702
0.0307905319987758
0.0311153002756312
0.0311349822951634
0.031459376251717
0.0315067901180444
0.0322173902816679
0.0328232356952565
0.0325977672841104
0.0323178129415857
0.032708383994558
0.0342075208791194
0.0347632194388796
0.0342360525847982
0.0347591645924669
0.0357597647702782
0.0367530173067696
0.0360984232218072
0.0357739727949752
0.0362577043810856
0.0368196174978325
0.0368629233215455
0.0374524228906033
0.0379148005965134
0.0384527810448204
0.0399153264005419
0.0398231429718948
0.0384937109943847
0.0384615208055714
0.0400639527027354
0.0405619406258554
0.0402806509096184
0.0406564009113476
0.0418861054763725
0.0425395384891348
0.0424996746239279
0.0433081697554174
0.0436022008608755
0.0432553076741826
0.0429322353899381
0.0442495482720251
0.0448614433691821
0.0448955022554328
0.0449924553311141
0.0452893513932327
0.0457301034244292
0.046637895491744
0.0476756003318686
0.0486623787538996
0.0492601564143727
0.0490653794189624
0.0490113973440491
0.049090209064864
0.0491874671813411
0.0490794267912453
0.0504282510135657
0.0517364833738406
0.0511475925778961
0.0505285227555158
0.0508244025253305
0.051337664473526
0.0523046616642222
0.0534734658427889
0.0542676184322802
0.0540505641682079
0.0530699941906094
0.0534693793309316
0.0542527286821199
0.0551999137898006
0.0557405367664758
0.0564041733261615
0.0569946354284307
0.0570138919768047
0.0562909771538386
0.0565984892915823
0.0577364689784143
0.0580536119728313
0.0588252181390709
0.0597296159971127
0.0596870250439354
0.0598020266169132
0.0597494519761663
0.0598892147815277
0.0609968852387925
0.0622090611915062
0.061664566866478
0.0614958793025231
0.0625277995505192
0.063230665535984
0.0632237299362915
0.063600675433884
0.0637021724087711
0.0643890936932253
0.0645490451913611
0.0643250215569541
0.0649560993797383
0.0656554876274638
0.0650337943517315
0.0659885961252607
0.0677635905478042
0.0676373958161463
0.0674550675128608
0.067981175503276
0.0679197699241926
0.0675973165628918
0.0677291813257235
0.0688815248944332
0.0688866221501415
0.0686942352260361
0.0692681260317088
0.069440870188475
0.0705452826358443
0.0710790269705401
0.0710696423074417
0.0714548335795976
0.0723274950553323
0.0727270026660156
0.0726339980033795
0.072720813873544
0.0729068230999321
0.0730128223295082
0.0738150317604885
0.0756913491024564
0.0760620677898749
0.0750639189511933
0.0748312962859965
0.0759211352098254
0.0775395363686117
0.0783404516502576
0.0782361998137695
0.0783282687609857
0.0785716687005552
0.0789549234541747
0.0793628284426031
0.0804944048517822
0.0811117870399728
0.0813727960977974
0.081932706111118
0.0823418991352822
0.0819161305801256
0.0818615845221321
0.0824061101273254
0.083275447009472
0.0835216234218745
0.0842931082691705
0.0847989842037306
0.0853556960921973
0.0861824221784682
0.0866472569449739
0.0870383955541097
0.0875646528254218
0.08738158404581
0.087374374610757
0.0879218967237477
0.0883514756347529
0.0885058739173559
0.0884875922426047
0.0885641361358625
0.089504927564802
0.0902246291369383
0.0898327181006221
0.0893247671100073
0.0894361071368968
0.0900723619222303
0.0907596140585917
0.0903805136605162
0.0896154994324292
0.0899305415506024
0.0899999868641854
0.0894925834472727
0.089804483271607
0.0893988303801572
0.088886680185776
0.0890144111675374
0.0887916733473683
0.0886418683965589
0.0884521850589259
0.0876198948071046
0.0871042674516705
0.0865990494930269
0.0862724041811814
0.0861792977564795
0.0855440791747893
0.0854598415187158
0.0857718760799046
0.0851907016496613
0.0847679477427476
0.085096430220873
0.0846608401481635
0.0835515364579557
0.083246054667202
0.0833559526183892
0.0831805438205495
0.0830931500721445
0.0830944306746583
0.0826766095783152
0.0825163507804765
0.082563233629048
0.0816216769505546
0.0808555262459344
0.0807894228925098
0.0804557348657006
0.0801555085901812
0.0796981114914958
0.0794113909085933
0.0792647225774933
0.0797408427046131
0.0795448060024844
0.0790149633416073
0.0785770311547132
0.0781107514336234
0.0775853147019568
0.0773630093815155
0.0772618058176132
0.0765015956656193
0.0761958349898632
0.0769914275889953
0.0763270444976401
0.0752371332464783
0.0751344490144502
0.0747509171840671
0.0740095946013421
0.0738175642223303
0.0733311197856094
0.0725313447997451
0.0722419637271511
0.0719372284829265
0.0716242051433154
0.0710028937228462
0.0700377653900959
0.0698214330850173
0.0702068588628163
0.0698106344367888
0.0691734083601398
0.0690808133702968
0.0686266563994828
0.0680234477264417
0.0676977269264832
0.0674801639130429
0.0670869493714002
0.0666614343086826
0.0662344241784536
0.0657462517986899
0.0652091243583095
0.0648275367861753
0.0648581319519791
0.0649102955721928
0.0641306683989
0.0637498917206057
0.0642097429384599
0.0644321010990169
0.0641452088906187
0.0636172627726623
0.0631491373440734
0.0631088532086587
0.0631106087517032
0.062615280279755
0.0623411774902162
0.0627382057011165
0.0629646899055703
0.0632461414705619
0.0630703195809348
0.0630133851940436
0.0630498521963432
0.0625706969130319
0.0624663108427638
0.0630015033449346
0.0631394498857968
0.0628193582007248
0.0631241521957466
0.0635845819983176
0.063193771512293
0.0623588204627779
0.0624099612462054
0.0630779892681866
0.0631785615244613
0.0628004393200662
0.0626942824018657
0.0622828751627475
0.0617204001190129
0.0615546626757726
0.0613234562222675
0.0614159183835728
0.0614204982897016
0.061237370638688
0.0609746615875896
0.0604230855407113
0.0600883602742543
0.0601529285426459
0.0599933210101806
0.0591848599823865
0.0582768108565439
0.0579575879942714
0.0580977503370792
0.0578920591886981
0.0575656402881956
0.0571531927817977
0.0568269111384234
0.0567652728434016
0.0563964567929889
0.0556509078049771
0.0552951083457979
0.0554796149973551
0.055343134751105
0.0547840781567199
0.0545263004949462
0.0545033434052126
0.0541414598245345
0.053673498246492
0.0536950688640673
0.0535448472653234
0.0530414655441614
0.0532345273069771
0.053596426782052
0.0535887300671945
0.0536124034396201
0.0534437463304811
0.0531628630329434
0.053316193073938
0.0535460225974896
0.0539476071490983
0.0548383215575087
0.0555320245661084
0.055623389993795
0.0558023893281855
0.0563137864644633
0.056900223648228
0.0579530222332857
0.0590676913688349
0.0595816325203008
0.060134601002696
0.0611073475290725
0.0621949844251891
0.0629511174105723
0.0633544460537924
0.063967699400696
0.0647082662972025
0.0650665710397777
0.0650476377174463
0.0653579159142681
0.0658528999789929
0.0657885794297701
0.0658468963028292
0.066344935773551
0.0670061850552994
0.0675542378086239
0.0682375489855138
0.0691570856478871
0.069876151870388
0.0707204900394308
0.0719741628851685
0.0728309928990222
0.0732797778736179
0.0737103903193363
0.0740025737759511
0.0742865902980267
0.0745794091990992
0.0744566219158443
0.0738852804334984
0.0729117471843653
0.0716854113503453
0.0707408831933135
0.069841091007476
0.0689385811108681
0.0683111114735274
0.0677584777613807
0.0671426946458552
0.0662558988496206
0.0655145793051347
0.0648645404321572
0.0642697474925722
0.0637995229713209
0.0633000113292499
0.06306535269618
0.062817130907787
0.0625652381979878
0.0625638242721029
0.0624782574528348
0.0622757667948271
0.0622032234958154
0.0624405686245359
0.0627173880257992
0.062442368719734
0.0619851714690452
0.0615587739608818
0.0609490999179852
0.0606982919094443
0.0606064645533694
0.0601848384996706
0.0602554285181195
0.0609856022361268
0.0613853037388617
0.0614406354206007
0.0616144374662724
0.0615637047687851
0.0609014307724825
0.0598544981556746
0.0587719379398119
0.0578153079189865
0.0569464930917321
0.0560860333358414
0.0551077178626057
0.054278123732651
0.053690036035869
0.0531744501594163
0.0529818098157566
0.0525400429595631
0.0517644156425973
0.0513975093460756
0.0512625223894086
0.0509360072550136
0.0504476168653543
0.0499260950193896
0.0496310622733513
0.0494153620180578
0.0491700246388847
0.0489419475404841
0.0487153138403299
0.0483967674553086
0.0483789235266259
0.0483167170960239
0.0476707512119107
0.0472516264972983
0.0471003343184285
0.0470097571298045
0.046981437221267
0.0465836232026038
0.0462644516899794
0.0461285337925209
0.0459357255190477
0.0458232276817511
0.0456340709560273
0.0453994144001266
0.0452355288706548
0.0452251630973808
0.0450947205694094
0.0447231976766782
0.044569492880824
0.044671438764205
0.0445771145081851
0.044341052119006
0.0442545218081565
0.043986848262352
0.0435941235122289
0.0434239609483337
0.0433981748895655
0.0432474555231608
0.0430478224703567
0.0429948554022135
0.0429136616852501
0.0426514191847453
0.042563920154068
0.0425375268259912
0.0424573660717917
0.0422969523884964
0.0421471514410015
0.0422536889538917
0.0422793455928727
0.0420380383478807
0.0418566505623693
0.0415802261378519
0.0413849535109178
0.0413075926226556
0.0411886941554623
0.0410638517420188
0.0409355712033862
0.0408148155541726
0.0405359748070457
0.040331683741384
0.0404815119691602
0.0406176798749259
0.0405855605244005
0.0403042752236738
0.0399553815633102
0.03989873112466
0.0399467777115733
0.039786816743623
0.0395075551636503
0.039359044389418
0.0393410987014092
0.0394020688010983
0.0394136028932563
0.0392216420079462
0.0390573377626003
0.0390137985278404
0.0389878144319953
0.0390529753892197
0.0390544687944616
0.0388044815494001
0.0386525068685214
0.0387083309896276
0.0387539834051648
0.0386804866570951
0.038533792508299
0.0383620523839948
0.0384523423550803
0.0386930191830931
0.0387545327297952
0.0387022773291195
0.0385608398618985
0.0381935309133208
0.0379107611129314
0.0379504456851826
0.0380799977643897
0.0379752086899807
0.0377089320626955
0.0374630494195135
0.0374866991257614
0.0374182161169944
0.0373216749107113
0.0373536481005014
0.0370716235923965
0.036815913393404
0.0368698478353758
0.0370199999858193
0.0369098555195481
0.0365522280803077
0.0361692211370927
0.0359788052320415
0.0357920651461686
0.0356267540012357
0.0352900038871195
0.0349329230772278
0.0350723020113801
0.0350259605960309
0.0345640801595345
0.0345549244961445
0.0348596240466495
0.0348175735606316
0.0347674982054381
0.0346764847309521
0.0344056268991182
0.0339733815569494
0.0334388376544469
0.0332532351977637
0.0334655246436833
0.033506888328359
0.0334387318846179
0.0333441087783807
0.0333637982031694
0.0336124256624285
0.033391967786484
0.0327420435088502
0.0327178059207939
0.0331998777132608
0.0328416126896307
0.031983212648831
0.0322308322757515
0.0327345562163692
0.0323302329544758
0.0318167897119911
0.0321216987592272
0.0322940014606552
0.0317292031481093
0.0315764103309193
0.0317157859135889
0.0318484479785276
0.032230876674992
0.0319844311977635
0.0315187115269068
0.0317267280169277
0.0316735408956339
0.0311255922478162
0.0311015911120032
0.0311149191709722
0.0314198285139046
0.0313216993849347
0.030728484474893
0.0306436353287354
0.0304765043225749
0.03025172694101
0.0303055960927479
0.0302742630042875
0.0305158748284435
0.0303281105899753
0.0302411896062117
0.0300254884589413
0.0298296205209409
0.0302698903593142
0.0308329796303228
0.030304368241552
0.0298669526354627
0.029793617648465
0.0299888110561485
0.030262719376454
0.0300093905024813
0.0297928718531891
0.029651974237811
0.0293618755818559
0.0295624816829128
0.0298030796287901
0.0296738193694739
0.029131433587048
0.0293443155484265
0.0295799580794423
0.0295082991839343
0.0293547955209916
0.0291300781147126
0.0289968159186222
0.0290444026881589
0.0290691577454832
0.0290677116469132
0.0290867672916952
0.0293580502908454
0.0294032650546324
0.0289091931068087
0.0284124071898628
0.0285323292851687
0.0285492967821514
0.0285170060829405
0.0283892679488968
0.0282276685301026
0.0288657027657319
0.0290911359851865
0.0289336337005898
0.0285807470570692
0.0284794037960924
0.0283488704467941
0.0279549801639742
0.0277586922918319
0.0276116906500047
0.0280246451699755
0.0283406381727794
0.0280401088154016
0.028013729960151
0.028089097878825
0.0275720047797578
0.0272161713935984
0.0277348621533317
0.0280894579868957
0.0280485601195917
0.0282467246775078
0.0278483751083483
0.0274837077341169
0.0279113423233422
0.028016698113887
0.0274384686072878
0.0268997066508835
0.0269487043852784
0.0273776572771167
0.0274626239645962
0.0273243575627899
0.0273833075775401
0.0277538473655686
0.0277631200155137
0.0275241591506466
0.0272940105670152
0.0275395287386882
0.0278258192932064
0.0279878609814053
0.0277680384505858
0.0273902813955837
0.0277798346149834
0.0280513415544079
0.0272940265974633
0.0265702754101767
0.0264053748255198
0.0264605224328948
0.026520690571982
0.0266087414780322
0.0264851651907411
0.0260965111469001
0.0260878621102368
0.0268593379837302
0.0274026342707922
0.0275550545806147
0.0274312739965464
0.0275052540391933
0.0277097539834334
0.0272923951251133
0.0266518536742194
0.0268531794355322
0.0271862761996513
0.0272484436142628
0.0273715376567626
0.0279210529316834
0.0281516758205095
0.0278470396510355
0.0275610557969259
0.0275474345767594
0.0276158316715999
0.027616372022051
0.0273848943980464
0.0271594375341244
0.0270315284708305
0.0266140660566042
0.0264150185225231
0.0268492809583241
0.0270205230029542
0.0265822639220053
0.0263812041340721
0.0266093884620503
0.0266781620574709
0.0269700772695279
0.0267916502860493
0.0262398485920745
0.0265834896042055
0.0266504462839999
0.0261804697618692
0.0254736067912066
0.0247418572004554
0.0245706384699255
0.0248552726865677
0.0246885281587966
0.0241463528357273
0.0239568237167683
0.0235661573647254
0.0234629389290104
0.0231259814451897
0.0231993374334031
0.0229369460107458
0.0224443064824285
0.0231368615648693
0.0230313529723019
0.0224462953241391
0.0220366022238815
0.0212537471998051
0.0213894500041065
0.0212378410687153
0.0211173257542246
0.0216045642357249
0.0221125196399211
0.0212528031589414
0.0198187143341265
0.0194648430224096
0.0190946040157163
0.0182447452904599
0.0193351995941232
0.0212962901416682
0.0208137690155084
0.0197269013728739
0.0196578625925017
0.0195816275685382
0.0190953396120705
0.0194719977836643
0.0195249289220227
0.0191421110967005
0.0189517304384811
0.01754995751612
0.0171268623671413
0.0177295921652088
0.017677103905763
0.0177574486880021
0.018754793959437
0.016584546155383
0.0159640193376223
0.0180150877879476
0.0175221142848106
0.0166676825494993
0.016748677742658
0.0164026395981934
0.0168967069180114
0.015206701350492
0.0145242268504946
0.0156455545236698
0.0148900289834756
0.0143736766569877
0.0149798547629883
0.0146665291680158
0.0137543118451633
0.0139873888064563
0.0140226564438962
0.012134344076962
0.0104136495039557
0.0104760753153024
0.0117686003487144
0.0121591155314464
0.0127786086289415
0.0131925969090599
0.0144924646556576
0.0142210900264225
0.014515018932811
0.0155323756685178
0.0155144107965804
0.0152091323574038
0.0166870541176545
0.0174560456958555
0.0170010594389747
0.016810729222291
0.0177515453359279
0.0181122530605988
0.0194675153665652
0.021318206059807
0.0208403748626584
0.0201216070183736
0.0202194943118805
0.0205033584591285
0.0204291422867505
0.0204856516101902
0.021079647893307
0.021321470784762
0.021339429832032
0.0213124446133474
0.0217617579573058
0.0212319370197194
0.0200357179874856
0.0205001980985477
0.0211460662741997
0.0214280754070126
0.0209427699557789
0.0199543798809202
0.0196219673495749
0.0200328167012785
0.0207816830313834
0.0210431161965514
0.0204051235661315
0.0199977746326785
0.0196864401197293
0.0198550389891432
0.0208832302208431
0.0201717000090677
0.0187152942675284
0.0176778504295394
0.0182552335439049
0.0188284025875235
0.0187159996874306
0.0188804353853731
0.019380948298644
0.0191362445586117
0.0170505947564484
0.0161133463211669
0.0163546619356534
0.016887569323263
0.0170166798021714
0.0163098926479974
0.0153421770838672
0.0148617749522542
0.0154409093507487
0.0136813616991015
0.0126800792757983
0.0123827316395058
0.0114866563887017
0.011591075759312
0.0121399092461737
0.0123554458925577
0.01290636482908
0.0124631994961244
0.0127122992693561
0.0121727315829834
0.0102332255598621
0.0116333194101181
0.014101467676766
0.0142570141146886
0.0152092017231178
0.0162214932003518
0.0133565944289984
0.0117500094377189
0.0136310781083156
0.01573770139662
0.0156355646005973
0.0148769345807058
0.0151456665404382
0.0148513146657148
0.0131376637506709
0.0127068125265441
0.0137484489304337
0.0145057728836809
0.0134365067603806
0.0125644912487119
0.0130183842793071
0.0133597625229157
0.0133653765800015
0.0110827629561335
0.0101153695133313
0.0112716940043048
0.0120805465534849
0.0130345422419612
0.014105306505384
0.0140305637753387
0.0131674513810124
0.0136382837357408
0.0153641016718671
0.0157401550020648
0.0157457305477924
0.0156639844956388
0.0155208598849511
0.0155789651432217
0.0149871379884459
0.0152574874962139
0.0170059000828318
0.0177897898108294
0.0174845315652705
0.0167149548778614
0.0166560355269878
0.0177237084252258
0.0185239698905765
0.0183100021002242
0.0183107657145022
0.0182754234043473
0.0184964998747487
0.0184068461122076
0.0182597444928424
0.0184886890037181
0.0186463457828049
0.0185528598215069
0.0187413881723267
0.0184620619572975
0.0183782686027292
0.0185762892600677
0.0187747932952524
0.0187907852844059
0.0188837606235273
0.0189665151071759
0.019141118268548
0.0190901793351599
0.0188510479367589
0.0185453245345
0.0188607614927016
0.0192721124241836
0.0194078426631469
0.0193180269750327
0.0191927440383578
0.0191155977918863
0.0195474964379047
0.0195041593287796
0.0193790090445365
0.0194300841775995
0.0193353117752226
0.0191473930256112
0.0192598911252017
0.0194211524953387
0.019246288550216
0.0188701868357982
0.0189563889558212
0.0194745800744638
0.0196201495271586
0.0193548538824173
0.019535892105041
0.0197254347490916
0.0193781730121128
0.0190016550262034
0.0191373885067968
0.0199001880145294
0.0200114153611117
0.0192593420030907
0.019138540554441
0.0192996682491789
0.0195117486170621
0.0193279888279298
0.0190021181867127
0.0192211401826464
0.0197369356456259
0.019674961454294
0.0195178366722131
0.0196922231051816
0.0197204083365583
0.0195858972801991
0.0194734861994736
0.0192415091587878
0.019263925205885
0.0196697285374606
0.0199415232994998
0.0199246277903481
0.019889860836282
0.0199245647945118
0.0198997109123395
0.0198301052717788
0.0196027423052042
0.0193216187018631
0.0195292669428833
0.0200533033669613
0.020273034966531
0.0198805374146507
0.0196743454131618
0.0198728685608334
0.0201098302149499
0.0200590156471593
0.0196906279476506
0.0194617324019056
0.0195963496623122
0.0197724897536078
0.020068417631923
0.0200965353694933
0.0198244898826915
0.0196604765430779
0.0194302303103554
0.0195353461076413
0.0199578767326921
0.0200256879469427
0.0200453868323346
0.0200133299107333
0.0201898560815042
0.0208663073170191
0.0212914293360865
0.0212913088772495
0.0213326534704525
0.0216997302418826
0.0222572525826152
0.0226011811027712
0.0229133157286022
0.0232655019931842
0.0240091928301097
0.0247025172916476
0.0243745509826316
0.0240185895514055
0.0239888730458875
0.0240916490781295
0.0244892726667484
0.0251061571998198
0.0255276864804588
0.0259802296409196
0.02636676174604
0.0264216402574169
0.0269972752706194
0.0279970721106431
0.0291449174679023
0.0305090394524638
0.0322325056006509
0.0342726809143089
0.0364436582597871
0.0388075776211386
0.041653577926587
0.0448804645785294
0.0484348296814063
0.0519910926290473
0.0557581856436706
0.0597627855963308
0.0639442073040258
0.0680705749592002
0.0719794454850144
0.0759454985339996
0.0804791644585603
0.0855484385461185
0.0906115156141432
0.0958927129062613
0.101031299051294
0.106076040544012
0.111373057836128
0.116964692919565
0.122646176110312
0.128269727219189
0.133466402570521
0.138520644412564
0.143605419999938
0.149045409723805
0.154603371586553
0.156782904462464
0.157360665767099
0.161127258355845
0.16452593232418
0.16585156480258
0.167420127367861
0.169310825921608
0.171207279789033
0.174327781657705
0.175471953542439
0.172052555451099
0.170715508403843
0.171422487126275
0.170615226805792
0.167886055033773
0.164964126023406
0.159887166144454
0.153859589890208
0.151331303865388
0.148723258410378
0.141081509602734
0.13471168566125
0.131475822459412
0.128106022255869
0.123888674497246
0.119655833316496
0.115976627207101
0.112407051845432
0.10929603034343
0.106824426714213
0.104841266441715
0.103096768987351
0.101557267294218
0.0999935146053054
0.0987116322578543
0.0978154191880189
0.0973652666398391
0.0974503015377093
0.0976451277377419
0.0980253445144698
0.0997288957410687
0.101283900391313
0.10076114585855
0.101821009638646
0.104588518568382
0.106457035674499
0.108168500321165
0.110708262336074
0.113854588989401
0.118712767103548
0.123771813688192
0.123475326434781
0.124738952199599
0.128760022682662
0.132932537424948
0.136930307553857
0.140269185352819
0.14408775353271
0.147836221784986
0.150616709437949
0.153275084444746
0.15116861495008
0.14926450578017
0.152032885153389
0.154089932996664
0.152449121207531
0.152137615636625
0.15302291356582
0.152792511661205
0.152173881848904
0.152678853507998
0.150012328751459
0.148059837196272
0.147777201255645
0.146417990420958
0.145831007717716
0.144827232225187
0.145200313123383
0.145435975905297
0.135430072799991
0.127445538276958
0.126502463032887
0.126752736917645
0.125596190587733
0.120859649114605
0.114665062611033
0.112823561412137
0.112117082163417
0.107663819281944
0.102443624465124
0.0989883913650024
0.0976230052636782
0.0963925621174356
0.0950064971989276
0.0950840008956074
0.0959369678379912
0.097191371907708
0.0973976559283376
0.0970865815429042
0.0995267554101537
0.102913600554934
0.104540175311801
0.104340573387789
0.106225515833359
0.110223249940306
0.112518416827197
0.109481297820825
0.109171603609949
0.110923797990302
0.112472054315047
0.112950191869473
0.111814186132656
0.111371892268594
0.111391408277304
0.111499135193801
0.112697001792455
0.111804065353041
0.107307962034203
0.105936976721824
0.106021631451094
0.105028257475385
0.103935150459254
0.104123073116842
0.104053188080188
0.104691734650898
0.10636873387206
0.105116391557029
0.103645026451868
0.104145444265404
0.105222261706643
0.10606946810266
0.106630561881664
0.107645297028212
0.108531413485502
0.108904850374922
0.110159995573815
0.111459475439538
0.111697163524011
0.112479069866111
0.111925715294732
0.111125824195294
0.112031472881898
0.113299982278396
0.112733331637568
0.111761425855615
0.111687141914077
0.111573551993324
0.110944851429269
0.110157902584647
0.109596330305487
0.107828642858678
0.10589261838369
0.104893220968658
0.103806687895963
0.102718888246602
0.101936275524985
0.100035363698872
0.0976018922860116
0.0965773569556163
0.0963994524842654
0.0961113348139113
0.0957890757680891
0.095899893665772
0.0960026621219606
0.0960277560118151
0.0963141616178479
0.0967950292222858
0.0973350987855437
0.0974973212631546
0.0966858729256786
0.0958591847126884
0.0953827128590032
0.0950809992264119
0.0947165922924141
0.0942757320883029
0.0937358207321762
0.09345458836193
0.0935612724129307
0.0938593078079346
0.094014332585858
0.0940184140121769
0.09417751497937
0.0944701254274755
0.0945501143063371
0.0945293242003314
0.0945253558217633
0.0943426697128122
0.0940753792509032
0.0939166071749397
0.0938008818782879
0.0936752068802838
0.0934796339997403
0.0932002191219987
0.0930546357147544
0.0931099801049686
0.0931531441874474
0.0931355771830693
0.0932413350791272
0.0935307386185341
0.0936329851928622
0.0934570219972085
0.0932807088972138
0.093238520380545
0.093211616562834
0.0931129091415073
0.0932084472422424
0.0934537461374789
0.0935549716478851
0.0938566441662342
0.0943338962003422
0.0948220674394107
0.0954593810599296
0.096285062208842
0.0972598639651771
0.0983071197317824
0.0994764850576215
0.100779764528761
0.10215424452505
0.10358310763691
0.105019169600097
0.106447398473061
0.107744817731053
0.109045849699059
0.110203068052917
0.110982295803625
0.11161952857956
0.111870893020741
0.111739689861232
0.111428630311811
0.110860761288621
0.109964263052573
0.108803686441559
0.107611336908114
0.106364282338094
0.10517693302407
0.104125932155717
0.103000287396808
0.101998264111531
0.101296775476257
0.100806703274578
0.100459736397618
0.100028751698857
0.0993627110399852
0.0984889554293591
0.0975123170864286
0.0965251596020588
0.0955158264281534
0.0945139498319112
0.0935653829223617
0.0928390865434057
0.0922769531213255
0.0918278303292564
0.0915966669937155
0.0917876119230529
0.0923594640498313
0.0933126534457646
0.094568079220539
0.0962297977077029
0.0983287975813152
0.100507844931917
0.102577689337294
0.104576990814207
0.10664188466696
0.108742999295492
0.110654931703159
0.112029619161482
0.1133999518498
0.115084275987194
0.116721074119323
0.118269384450973
0.119630564966184
0.120670729353265
0.121453417695873
0.121940705423524
0.122458304152519
0.123093438948796
0.123839111792019
0.124603123440105
0.125671838063786
0.12714252978579
0.128738001127097
0.130518975981862
0.132275325691581
0.133988042498899
0.135999499734965
0.138096103025631
0.139901309624339
0.141553210012328
0.143358491269045
0.144998414261353
0.146390761305887
0.147793304561745
0.149220271706468
0.150840743546455
0.152804107682327
0.154797807221396
0.156985914007229
0.159432664188908
0.16185984445787
0.164179609470653
0.166947624228092
0.170127773410575
0.173522831946865
0.177270152941822
0.180976791687284
0.184896063416238
0.188928367972341
0.192498692040467
0.195755370646584
0.198562762566866
0.200806450352137
0.202569511004755
0.204272456060741
0.206157215341537
0.20818104660361
0.210460000332402
0.213090335988419
0.215955448692191
0.218993468321973
0.221932030020046
0.224888399081181
0.227856613658593
0.230761692659866
0.233601958484323
0.236765242411611
0.239852366665473
0.242959208621769
0.246248364014475
0.249629990002009
0.252973046842457
0.25622820286709
0.259401173542976
0.262598649967218
0.265297009888154
0.267423368208832
0.268904726241555
0.269569771999068
0.269812322494017
0.269578279460127
0.268700017225269
0.267433488808052
0.265914844890115
0.264019577130011
0.261607519655813
0.259055852414355
0.256537274584946
0.253875862952302
0.25076478002934
0.24742510567696
0.244286301096067
0.241314502670892
0.238378297267846
0.235330436651158
0.231888066520436
0.228536497066408
0.225311450110367
0.221968001377477
0.218642926043364
0.2152601298351
0.211883237125174
0.208501552175121
0.205285525085921
0.202321171124538
0.199267703910462
0.196143215658977
0.193251266215205
0.190223538754147
0.187258167193985
0.184477954290464
0.181296846734378
0.177585250993901
0.173893511691353
0.170201388816861
0.166251448336612
0.16248216265631
0.159001690643088
0.155771859168537
0.152781904017962
0.15016133691478
0.147887607526185
0.146215256565093
0.144793540209559
0.143535244722945
0.142399297396895
0.141150886628801
0.140023454898432
0.139241188070812
0.138405978157585
0.137348281892353
0.136355681508233
0.135385802174012
0.134556414726176
0.133930164528918
0.133213350059786
0.132604690183256
0.131938391822039
0.131128488308825
0.130366608086262
0.129096410433947
0.127733722865049
0.126401898102762
0.124587560608243
0.123184447838447
0.12189356504737
0.120479963524495
0.119287749065833
0.118043552188807
0.117043807109666
0.11642537684479
0.115412738971404
0.114102983349485
0.113399230902698
0.112906722342849
0.112842645774523
0.112981981654058
0.112865843687415
0.11306973549917
0.113192914865244
0.112951214744686
0.111980724321868
0.110217096965163
0.108513765416231
0.107242840371023
0.105814246034489
0.104516184889434
0.103826871774006
0.10302360047061
0.101973160850333
0.100977227616299
0.100595203666903
0.100469425434218
0.100115471151088
0.0997185811380284
0.0995545336568715
0.0994977594283368
0.0995892343018512
0.100101601312776
0.100651657506751
0.101395086640037
0.102420153649002
0.103071964333126
0.103712891742868
0.104427776031172
0.105220602127102
0.105905721582419
0.105679824568358
0.105595638492143
0.106161701453509
0.10656687493188
0.107049063949657
0.107453384064366
0.107737355911663
0.108735867815914
0.110616729030619
0.112833056906613
0.115323582474155
0.11800785798558
0.12132046448789
0.124742556253425
0.126404980586821
0.126237723760248
0.126117073253906
0.125796682810696
0.125115296820959
0.125386859752874
0.126702628271787
0.127706116942816
0.128921878799514
0.130768996790495
0.13295398479792
0.133986149010166
0.133996883264818
0.133559347053183
0.132729780128777
0.13216016248559
0.132605418582615
0.133464601067824
0.13434473535542
0.134761911941752
0.134915410776373
0.135964504636009
0.136348736497371
0.135727856284304
0.136064003066133
0.137361123062798
0.138044941670283
0.137972998356988
0.138412270928315
0.139076179503516
0.138421290619745
0.138242647099113
0.139779356568191
0.140123612562269
0.139499901105092
0.139590086943075
0.140869761116963
0.142077573126892
0.142145710648563
0.142156691715392
0.143817488563977
0.145440530347582
0.146417754652704
0.147595385248021
0.148648151354694
0.149174210985764
0.150551848805467
0.151908645433105
0.15329864594632
0.154893864570336
0.156469757144569
0.159303640694399
0.161842090144201
0.163421142110617
0.166788322539441
0.169852917466662
0.169609124809416
0.168868996176703
0.16951824049888
0.170711463256994
0.172596585790626
0.172896424504389
0.171105378513531
0.170484192919695
0.172244022454418
0.17367987522264
0.173740579580937
0.174218399124342
0.17521411828534
0.176849568606027
0.178972436365394
0.179214016082165
0.17752698556397
0.176377920955136
0.180674470480603
0.184882858822161
0.180813906812014
0.179444732542874
0.182943468247922
0.186805448254623
