1798
3999.43349933624
650.420452594757
1
2
4
0.0091703538684083
0.00908254454580302
0.00872643852260226
0.00816998541554625
0.00847471354360274
0.00905165017497857
0.0087463264065925
0.00822884862970009
0.00835281998104857
0.00869835365269157
0.00868904263534448
0.00846576610379529
0.0081905817981335
0.00868772413169566
0.00933904221204516
0.00916517624316266
0.00846669367063549
0.0081458716525247
0.00819506273149417
0.00823700940202014
0.00849077821871848
0.00822453366848732
0.00770265366731091
0.00796610960985581
0.00853355888592331
0.00900021699475065
0.00882276113291216
0.00838851367675959
0.00826338293473557
0.00838563598305176
0.00788149653872816
0.00785550634430357
0.00839566425815953
0.00844826108580898
0.00835827791691144
0.00832320794177156
0.00807431882603392
0.00798289141428604
0.00836724937102514
0.00877921071591021
0.00841049624455343
0.00769936900524164
0.00719468321561853
0.00735080942348105
0.00810544820851668
0.00877115960113501
0.00879839551146281
0.0086601335757187
0.00831862327932647
0.00778279348556193
0.00744825759340367
0.00748267818130187
0.0073030574537806
0.00745279967984467
0.00766002260439756
0.00807808384616572
0.00789336526317698
0.00733014616817703
0.00729977239919862
0.00765760348938802
0.00825563828260545
0.00815693087380988
0.00803146040304227
0.00870547816924263
0.00857678146878616
0.00721758797150424
0.00661067094994025
0.00709914660476737
0.00770375686600821
0.00792676998958684
0.00737103700934524
0.00707404196806032
0.00750483931310232
0.00800025986660317
0.00802210533507596
0.00759682070368845
0.00690996858135718
0.00708707307216935
0.00742433675699606
0.00750172041668583
0.00741886411834828
0.00744634420796819
0.00735371305723755
0.00710929467069269
0.00698391505624958
0.00743124431093647
0.00746395768205361
0.0069086806165097
0.00715380809858732
0.00725766456488213
0.00749783216771679
0.00801182887835963
0.00811560323479345
0.00762844055570887
0.0067951775896855
0.00632473234701005
0.00642272885363294
0.00716496527789558
0.00750885192179379
0.00711511877385315
0.00708677645361118
0.00729854811395155
0.00759606658857146
0.00758571380680979
0.00733469291342929
0.00753760245816615
0.00711683632689749
0.00677100389221943
0.00715114176769003
0.00703685097898694
0.00719798099470114
0.00746895928423164
0.00725974980207773
0.00738312717040222
0.00741073071640954
0.00684546439270468
0.00687929813954345
0.00771391870320728
0.00796561589661108
0.00759724013264119
0.00674628852635716
0.0067363864816384
0.00771203044660009
0.00752428352613547
0.00724351772384356
0.00737660114510147
0.00732448674973997
0.00740330479868325
0.00698083368349082
0.00649265728545689
0.00641993580993541
0.00688924278618983
0.00673758545234242
0.00631594452015983
0.00682278038493698
0.007490717611264
0.00740015698074657
0.00709807487329219
0.00671146563059233
0.00607730930665813
0.00604816105087709
0.00691962725210485
0.00651358712467009
0.00615930705227616
0.00619376243232848
0.00655160650650076
0.00666763647796994
0.00673367506561199
0.00712866390406578
0.00731153046116917
0.00721100308566139
0.00737008216338867
0.00716861799268076
0.0068959006223558
0.00713319677180612
0.00769607640337679
0.0077365373231385
0.00744465811865659
0.00787584838560415
0.00824770343147036
0.00810548326652479
0.00855998137326662
0.00891812741238108
0.00879315114669036
0.0092051288715136
0.00968956284097124
0.00921324273100703
0.00843465636103088
0.00833885742731652
0.0082915614041561
0.00861498079235636
0.00910319276852038
0.00878754422136308
0.00827653128829154
0.00807036287512942
0.00835108649025782
0.00916700819762626
0.00940700234535468
0.00934435325233576
0.00936480498916187
0.00929197032407166
0.00949206498859448
0.0101953514171378
0.0113789994769455
0.0113901474072784
0.0110589175198408
0.0113567294508406
0.0117182787832572
0.0122220720145577
0.0122442644236511
0.0124061311116666
0.0122939555940725
0.0127256510228264
0.0138402718055605
0.0138441575582617
0.0138282628988431
0.0144051033409562
0.0150967837660177
0.0149757750012661
0.0160012104756247
0.0161900029269732
0.0157600435969971
0.0167225035618838
0.017523052202868
0.0175789861202315
0.017629674757882
0.0186722287861764
0.0192177911460874
0.0184923498826928
0.0182971699329176
0.0185155581265713
0.0191745574945456
0.0194219521088015
0.019203728352027
0.0196894985169672
0.0205268388086699
0.0218068259626637
0.0222327087857065
0.0223633059557452
0.0227221349406681
0.0225610834621456
0.0229424618234202
0.0235025730132536
0.0232336716691904
0.0236778780253774
0.0244137318425853
0.0252171593587508
0.0260513497697527
0.0271909362765932
0.0284298075453111
0.0287429552425089
0.0278357961508728
0.02729647702768
0.0283661964270111
0.0294205291234698
0.0292913949860806
0.0290823066663697
0.0308999709075766
0.0311356525697645
0.030035660630189
0.0303536275923111
0.0317836210202144
0.0337326468916104
0.0337692780992177
0.0334867547713582
0.0343928274758838
0.0346593820368252
0.0352640428092172
0.0354581734660213
0.0367825862069297
0.0374688975283613
0.0374548371616475
0.038846771138484
0.0391284268141676
0.039707156378759
0.0401342176995745
0.0389913442270529
0.0396233660750938
0.0412034242115678
0.0417766592658522
0.040899546748334
0.0413273143205107
0.0428749184998303
0.0430750074819639
0.0438870403876205
0.0455698078092126
0.0449304112282465
0.0445003442556152
0.0459164779740596
0.0468916029152883
0.0464229885812992
0.0469260980279045
0.0475370520323492
0.0477354276810196
0.0482557832081825
0.049594410150474
0.0502861754134602
0.0512247608221183
0.0517489530940637
0.0511071992478267
0.0513792544665916
0.0524825510823072
0.0528436148580802
0.0535631226196849
0.0537444260233851
0.0535757647340591
0.0540608662490863
0.0552708258393088
0.0563537328005933
0.0559997768328122
0.0560697389917179
0.0574847410162048
0.0582341376924879
0.0585940248183691
0.0580318611677553
0.0578705498971
0.0590420348484735
0.0594115059352383
0.0593734185416272
0.0596240241993849
0.0595941802789665
0.0598706980937586
0.0612092917564172
0.0626160305268852
0.0630729646924342
0.0629857619789375
0.0637289297891845
0.0647150476957956
0.0642409332060519
0.0638993267256129
0.0649350655442874
0.0658590459759361
0.0661246301841954
0.0663848878715916
0.0658281657245335
0.0659179016707741
0.0674086708422735
0.0678594919088644
0.0680599008039989
0.0685667882838005
0.0688238493632942
0.0687847210925264
0.0685294655079538
0.069157454311656
0.0697572822717876
0.0705351572673965
0.0709547661690522
0.0709213830800253
0.0709506792210256
0.0707712506638848
0.0713528600047808
0.0724698939755885
0.0728998205532725
0.0735642525477088
0.0743922351298284
0.0743765386036936
0.0744057150621602
0.0750833546853598
0.0755010520726453
0.0757173296773809
0.075940659674418
0.0767512486920564
0.0777222864621616
0.0777974025868491
0.0777855914742664
0.0788936654583884
0.0796137202076985
0.0797964187984774
0.0802729819807486
0.081722554864208
0.082944969063771
0.0834214691586353
0.0841544093183802
0.0854141023851544
0.0850087864679616
0.0845518621249818
0.0853700260017468
0.086689634438997
0.0879026479206931
0.0885224168055277
0.0889604512558398
0.0898980289934148
0.0900854863477039
0.0899632598696934
0.0905558085775343
0.0910566468828697
0.0912695374606273
0.0915790328541907
0.0921574019893845
0.0930825123813559
0.0935990964275274
0.0942683406957279
0.0946717744412869
0.0942880365304928
0.0936095543666286
0.0938096533406329
0.0953999269542886
0.0966417516929114
0.0969561190199819
0.0964801557307982
0.0959876425697802
0.096130950204735
0.0962231674666094
0.0970211824260321
0.0972944535367843
0.0965581700584102
0.0964076109321127
0.0962589062459039
0.0957221746983152
0.0960870621099826
0.0964790514973991
0.0957080005841219
0.0950896588625734
0.0952100803444558
0.0953762662914198
0.095240767665466
0.0941330603988169
0.0935857028038709
0.0936805954914874
0.093707011977976
0.0933346893144819
0.092855177419205
0.0920125151248031
0.0914274094454072
0.0913111587786938
0.0908858493114369
0.0901965020237076
0.0896292470827633
0.0894924377044424
0.0899669812625725
0.0898997499834861
0.0892395292458523
0.0885807597723511
0.0884099454320809
0.0881009322402515
0.0874349266984071
0.0871217357477062
0.0869068589394315
0.0864099127643743
0.0865184943702816
0.0865023566343705
0.0864014479935157
0.0864275921582342
0.0862661659093715
0.085557820995021
0.0844709752148275
0.0837512165856816
0.083535395645919
0.0834152204493985
0.083281827280318
0.0830269456412152
0.0827248835111302
0.0818047085180362
0.0809288691031221
0.0808919583194542
0.0805667052423858
0.0801534410949358
0.0796577209154892
0.0787451976929332
0.0782182875606924
0.0779059478633466
0.0771828267442293
0.0766130366630118
0.0764247731875376
0.0759827861833017
0.0752442546285999
0.0744773233910848
0.0736904221587401
0.0728312100151229
0.0721936271480606
0.0716873818679437
0.0714057003635477
0.0712517587480645
0.0706561910575086
0.0698676156897141
0.0693406454255302
0.0690001416378003
0.068508537194663
0.0675340555607584
0.0669646749872975
0.0668030356190489
0.0662062353756673
0.0657829382466537
0.0655884341288044
0.0647404922191738
0.0643641039237001
0.0643191634993601
0.0638910539921349
0.0635060361826757
0.0633055213803446
0.0634570180907668
0.0632921657163279
0.0626711471405885
0.0622414939312948
0.0617523673931687
0.0614193345958603
0.0616020764842664
0.0616322330323976
0.0614327479613584
0.0614224706172792
0.0616243274738642
0.0616798194506973
0.0618522919289398
0.0619017185547668
0.0616213052728577
0.0615371840666738
0.0619118901081543
0.0626178604880926
0.0628304943326543
0.062826977075792
0.0627077289026398
0.062458044535602
0.0624684516536495
0.0624673985334592
0.0626177933202894
0.062641563616301
0.0619155048771013
0.0614178643211028
0.0616413807665899
0.0618393582855645
0.0620147535224872
0.0620135099111128
0.061357201139432
0.0608487188990395
0.0603489875873241
0.0597532177080178
0.0596827248071487
0.0596991694161226
0.0591090472243783
0.0581181276564295
0.0573805709049792
0.0572990074297868
0.0571660063789722
0.0560968923428955
0.0553028773376249
0.0551633742217442
0.0549889229996953
0.0547782619492399
0.0541811883417374
0.0533933068710127
0.0526890533796173
0.0520179806127917
0.0516548039375451
0.0513729636425989
0.051049193682349
0.0507919571697703
0.0504812759314326
0.0502925388045628
0.0501624370944693
0.0497614577691842
0.0490197579506339
0.0483633670891547
0.0482305050464935
0.048257353599362
0.0484003051415852
0.0485730545980509
0.0482595257872705
0.0480957348058348
0.0485620454258754
0.0488194712194245
0.0488418346027046
0.0491483970749159
0.0494539837006245
0.0494474110167882
0.0500050468190405
0.0508476676805132
0.0512190191551174
0.051801097011834
0.0523821341476689
0.0527038202558506
0.0532226776303055
0.0539130564770035
0.0544064122323597
0.0548595932249848
0.0558942521677117
0.0570736815088191
0.0574233756812711
0.0575945779778096
0.0584556749985295
0.0590352448380823
0.059205063295127
0.0597786359357641
0.0605831946628341
0.0611207408031255
0.0615910502197888
0.0619271293390391
0.0621223234222344
0.0627480319598838
0.0634409932506808
0.0641016800806593
0.0652375978320427
0.0658801843218361
0.0661489278773802
0.0666789415430436
0.0667980971840928
0.0668880027719773
0.0672089555540388
0.067526548752719
0.0681390704513787
0.0682388042026713
0.067189208923365
0.0662728775032482
0.0655613433798285
0.0643817968688241
0.0633897773856219
0.0627789668778337
0.0621975328608977
0.0615595359997532
0.0609299587996038
0.0602343391824629
0.0595334286192679
0.0588821475330201
0.0581585597273213
0.0573770305324748
0.056783098746102
0.0563462696276028
0.0560157113135112
0.0558916464360708
0.0559124499306895
0.0559367910021678
0.0559423646088418
0.0557527781019459
0.0552968404614777
0.0550283287795438
0.0550185269784465
0.0546771544942345
0.0541844326280927
0.0538794130007597
0.0533970043078048
0.0527206939677544
0.0522791356921619
0.0518155086028918
0.0513617845333085
0.0514760167004872
0.0518005770691358
0.0520016645822171
0.0519224527492351
0.0513889594831505
0.0506565077342027
0.0500215635579369
0.0492783546541012
0.0483850971626541
0.0478701463140794
0.0475387133000295
0.0468284911119684
0.0460445503681387
0.0458043117296645
0.0452692803099482
0.0445067838180476
0.0441132788995283
0.043805559459171
0.0434505352317865
0.043195794083931
0.043032461533228
0.0426265428739168
0.0419731256831579
0.0415549997800882
0.0412140991970974
0.0408870847767177
0.040576920537579
0.0401483361406083
0.0399976899563416
0.0398085397483404
0.0392354870624881
0.0389390450046948
0.0389096291154516
0.0388710175949797
0.0387861842982639
0.0386415740959666
0.0383205776810482
0.0377814900994272
0.0375906822554723
0.037597098688878
0.0374712472308939
0.0372865841570797
0.036855648740896
0.0367412673708377
0.0366492683413513
0.0362635424621455
0.0359941429363559
0.0357385820375177
0.0357391454050969
0.0356731874325367
0.0354534715473925
0.0352633205003352
0.035170294407209
0.0351905245622431
0.0349143397241885
0.0344396076800129
0.0342405957739543
0.0343936676696955
0.0342592004381295
0.033862200980588
0.0336383367935396
0.0335629312770997
0.0333948234022582
0.0332256013615718
0.0329782252839278
0.0327132030739811
0.0326961172530456
0.0328021555306688
0.0328523581524876
0.0327004384609293
0.0322097952560115
0.0321541335753082
0.0322746112695934
0.0320437907709514
0.0317277016691215
0.0315912524610237
0.0315264065446276
0.0314434222965375
0.0313817131070296
0.0311682529268859
0.030889128905172
0.0309515353395001
0.0307544916476331
0.0305041705018989
0.0305250742768305
0.0304798589446706
0.0302203435224804
0.0299873963710554
0.0299998914989749
0.030030732588118
0.0299825282562294
0.0297204881564198
0.0296778049712013
0.0297443731788955
0.0295829437458712
0.0291461769127232
0.0288425406516058
0.0289754781696109
0.0290601371079923
0.0288781702484062
0.0289029895411037
0.0288725782204243
0.0286365044652525
0.0283957380464918
0.0285683701993399
0.028762938700781
0.0284003253860848
0.0283997157991015
0.0288708332754184
0.0290846677235275
0.028965616128155
0.0287553145149204
0.0284741070230996
0.0282293200186224
0.0280384008992622
0.0280127367941195
0.027726160161865
0.0274388403232144
0.0274298971561074
0.0274415938072173
0.0271750126501321
0.0270674798521641
0.0270463820195329
0.0267696230639762
0.0262225291973367
0.0259869411381875
0.0258456401066847
0.0259564957077452
0.0261348215526563
0.0258621229941825
0.025389084144846
0.025247853241587
0.0253197894844332
0.0251829033418945
0.024768997383316
0.024372578786117
0.0241393621297016
0.0241037826596845
0.0244540057318364
0.0244067925753352
0.0238771894568585
0.0238192009064557
0.0240226699358885
0.0237737212315181
0.0234369924986193
0.0235845033585272
0.0236800815965949
0.0233747142315354
0.0228417940799587
0.0227586937307788
0.0229505008279969
0.0227963018112737
0.0225434545385876
0.022398184495635
0.022520705171592
0.0225144756732227
0.0220253593202335
0.0217817535375032
0.021719586485271
0.0217892693692802
0.0214662760072995
0.0212305437036591
0.0217799454060419
0.0217185775607363
0.0215758835190246
0.0216615377110564
0.0213906330369319
0.0212400301340828
0.0210280429961111
0.0207365229013485
0.0207310213826838
0.0210015124143864
0.0213263742721048
0.0216471644404916
0.0215040794203858
0.0209027428922938
0.0203066617922157
0.0201779522120765
0.0202219961068552
0.0204492955164705
0.0202334357873055
0.0198519334127299
0.0203264323470809
0.0204300550373564
0.0200021844176004
0.0198562909895903
0.0200147065903088
0.0202043510436661
0.0204548897733329
0.0205439384383241
0.0203577478159203
0.0196951057354888
0.019227904528661
0.0195879876833484
0.0201060061603927
0.019811774740441
0.0191452495023098
0.0186495258319836
0.0191838529026417
0.0196402158179175
0.019404135454017
0.0192888448891925
0.019159866745509
0.0191121850448881
0.0190381944749273
0.0191055928084065
0.0191018808858518
0.0190270624630981
0.0192649494604922
0.0193602612966211
0.0194058021899626
0.0195118733845417
0.0188941455598353
0.0183429646563295
0.0182582613702739
0.0181939341211722
0.0186672020499255
0.0188689349843886
0.0189003221722271
0.018821016359772
0.0187562003160456
0.0187875628448875
0.0185498872790951
0.0184141427788866
0.0178401513863244
0.0178696202006784
0.018310337662617
0.0181522407769935
0.0177275036131126
0.0176699471403488
0.0176180118995379
0.0176068164352588
0.0179990071228099
0.0185361927845641
0.0184803956238194
0.0179258626400394
0.0174811728296388
0.0173721005379403
0.0175455604387106
0.0175459303067806
0.0177100288398171
0.0178385021170413
0.0176234633679895
0.0175405253702094
0.017227693436639
0.0170790240331746
0.0170984253975244
0.0175026452916748
0.0175158144251056
0.0177031425401265
0.0178530682835494
0.0175439656663983
0.0174229039283769
0.0177796882421242
0.0179804617401903
0.0176582440834858
0.0170797549570645
0.0169099517580728
0.0170495209080837
0.017515159454331
0.0178373794051749
0.0177203289173961
0.0175827076517718
0.0174509305607136
0.0164760554930029
0.0163107690401241
0.0170630031715834
0.017392152584768
0.0172008244611048
0.0167694765650516
0.0164501668100963
0.0164059585675939
0.0165197730942067
0.0165194170584401
0.0169986723719715
0.0176253019230568
0.017505181290718
0.017574077977594
0.0178747447598983
0.0175700765937651
0.0171809107252688
0.017092228717233
0.0171548516048646
0.0174275068152471
0.0177256642361483
0.0181096560171784
0.0183196399504902
0.0183413725577279
0.0180940714551455
0.0182324657804558
0.0180054000096112
0.0173830980983345
0.0168645469459598
0.0167142630650407
0.0171470994993333
0.0174332548701265
0.0174569520939665
0.0169269474609358
0.0164369167481142
0.0167541311169555
0.017139530951929
0.0171656934180701
0.0163677213907769
0.0160632929099132
0.0168276728640688
0.01711673744806
0.0165815619127704
0.0162370277880423
0.0164155451345275
0.0165899081876786
0.0154184597743535
0.0150692990737704
0.0153447153825038
0.0151435724825397
0.0149964636108257
0.0148042815883363
0.0144624156964088
0.0140647516816639
0.0143723305039588
0.0144016040348587
0.0145176734904659
0.0141021631815352
0.0131385169504231
0.0125825199629491
0.0120952024804788
0.0120220149528842
0.0123464189276424
0.0125067740497611
0.0124492039131832
0.0124551272918051
0.0130358466240369
0.0128989680640603
0.0126685026411582
0.0118527673254471
0.0104860141361716
0.0109219982672409
0.0113735052077335
0.011478483309487
0.0110296124816285
0.0109126207531323
0.0102163681484255
0.0100889129163269
0.0119509467999295
0.0128237776957024
0.0121524251510122
0.0116266526115603
0.0103478817384771
0.00931521961375366
0.00845542518892841
0.00867069896221348
0.0101710121100017
0.0110576549173424
0.0101444503953612
0.00900558884449468
0.00748882590579068
0.00811970704740179
0.00873868635064037
0.00837008468118129
0.010078695532174
0.0103143118192296
0.00827510893515881
0.00803926351710754
0.00747456308498628
0.00686481530573862
0.00817252991538271
0.00836732792100699
0.00734974544608342
0.00675673105105988
0.00660164957871346
0.00693667218382254
0.00641694654744702
0.00529909953107391
0.00365759505322221
0.00323776993018743
0.00456632012286236
0.00528909470046782
0.00418482891233351
0.0032778381420296
0.00453938818127614
0.00668516878648785
0.0093911962326493
0.00872752721279178
0.00668036920673077
0.00807300184257789
0.00991933476239796
0.0104299451943799
0.0105255199318604
0.0094486688942414
0.00826991584948394
0.00901043287561619
0.0100609303092697
0.0111698947406236
0.0120365629431517
0.0124849593629967
0.0121447279627173
0.0115750569907999
0.0118279833195612
0.0129487560021113
0.0140040550348585
0.0134302678409185
0.0130539062827938
0.0135915551232189
0.0124415826639583
0.011356115794411
0.0122426277828118
0.0121085478730183
0.0115748565405952
0.0119882923130647
0.0119790014498183
0.0119837700141235
0.0124048262895129
0.0120268525859139
0.0115230131284005
0.011964506423566
0.0130770242697656
0.0136959847432602
0.0125371191776513
0.0110779022165857
0.0111081207878942
0.012555614106299
0.0127723175840948
0.0120017681913869
0.0108217814398635
0.0105477801381443
0.0108880764740291
0.010802170457184
0.00973566514176964
0.00973862324172148
0.00974153863076185
0.00932480070583725
0.00945369043965901
0.00951576090844113
0.00853082995281788
0.00917404344699453
0.0101841860385625
0.00904462881252852
0.00838853903123831
0.00798692914492292
0.00672155502328806
0.00717519046559951
0.00668145453750523
0.00539520444827658
0.00432380824486497
0.00497754380414479
0.00662846428932011
0.00695110606911733
0.00625397704543825
0.00539221247930386
0.00511158976088398
0.00760980922189394
0.00960081649440056
0.00804414068945414
0.00490661966191916
0.00429707262124485
0.00521149857387902
0.00656626780271824
0.00769081773677364
0.00792764714669794
0.00706338849253308
0.00739114516569156
0.00795751681642076
0.00732286071412439
0.00653920631612275
0.00760948570456758
0.0073287410509525
0.00712013580007415
0.00849400301364309
0.00819232225588134
0.00687383877653824
0.00583416623754303
0.00560343748310428
0.00617836511665134
0.00561855846949027
0.00570457353970288
0.00729547883775297
0.00754198462108299
0.00518261395589944
0.00474223855240706
0.00558458952193002
0.00764837785669514
0.00910108864494887
0.00991210902614641
0.0089450686426722
0.00816300719205832
0.0090326453740322
0.00858732816911968
0.0074884841807556
0.00890496824490028
0.00989782346717052
0.0100774151608187
0.00979748811334357
0.00965416385540554
0.00985461327892967
0.009791812222883
0.0094880570365003
0.0090832111374438
0.00900600938361813
0.00997145782840503
0.0103988380585063
0.0100119643878989
0.00976462284600734
0.0101092792759753
0.0102732624048679
0.0103067653604613
0.010479818382807
0.0108226137201286
0.0105642563558823
0.0105491533685784
0.0112797656434033
0.0116325940794622
0.0114740651167185
0.0114039221418561
0.011273986059471
0.0111501518226546
0.0112329844795569
0.011600575919371
0.0113126680056486
0.0113716631140926
0.0119742281595457
0.0118930883398279
0.0113699744193323
0.0111473389865125
0.0113200584510915
0.0119287634882594
0.0119889903486977
0.0117778464049796
0.0119706319187031
0.0122618476056239
0.0120244569289317
0.0114687757655462
0.0112730299577277
0.0117672570330352
0.0121906252274354
0.0123251759263651
0.0123008988298022
0.0124135074324445
0.0124306115657074
0.0121414358008574
0.0115492434564903
0.0113115997643068
0.0116871913470092
0.012167139053336
0.0122434771102248
0.012279888517782
0.0122424767747278
0.0119719608598351
0.0120790617933541
0.0124561439322451
0.0124602249457896
0.0121682983440962
0.0119649425423672
0.0120224507257387
0.0120723452798173
0.0122360961390102
0.0125848228803003
0.0128725284602073
0.0128376228635779
0.0124485545737776
0.0121408903692476
0.0121105753371489
0.0123560361556667
0.012532242148457
0.0126864517110303
0.0129036994032714
0.0126663249342573
0.0122522984713713
0.0123091269750671
0.0126544641588393
0.0128934579745348
0.0130694235380064
0.0129848939607956
0.013044144760553
0.0130506744720323
0.0129574212535551
0.0131057696366049
0.012964980764718
0.0128401279804603
0.0130134052777394
0.0130710980159485
0.0129880558568112
0.0133054099171745
0.0134339241487771
0.0134277065231978
0.013498579113205
0.013478765658095
0.0133116129116826
0.0133610766718338
0.0137327445275758
0.0138751496165503
0.0135401261749421
0.0137038809158885
0.0140429769697192
0.0139908917141207
0.0143037271073322
0.0145703260813254
0.0146963945348201
0.0149724641807809
0.0153486005942956
0.0156518735112815
0.0159471025282031
0.0162474570213552
0.0163781273243482
0.0169476405413732
0.0171341065238809
0.0169213773701307
0.0171906466763902
0.017606203287395
0.0180053608652183
0.0183066998679799
0.018521572858214
0.0188702303780852
0.0197500312148309
0.0203996773221993
0.021132966165792
0.0222295605232855
0.0237510034640162
0.0253527919602665
0.027113536329706
0.0297536450217518
0.0321343018052561
0.0345836381947252
0.0382897499871489
0.0413145441795333
0.0450995701097846
0.0485028436816015
0.0517308969203205
0.0556049071127746
0.0595714342918368
0.0629781824706616
0.066952194614673
0.0712626196896327
0.0758369560580177
0.081542915554853
0.0871055559835112
0.0933370735487662
0.0994825414096347
0.105655296823372
0.112314410801543
0.119150948998256
0.125687884676378
0.132581396952131
0.139520679360826
0.145338000759765
0.150916613054538
0.156940259526943
0.162933087288764
0.165790051632481
0.165107826604911
0.167943347157967
0.171285744314988
0.171328395893122
0.171119859859965
0.172791486499566
0.175018961841061
0.178002734042468
0.179538001260217
0.176215239022998
0.174466533962935
0.175167818606675
0.174743539236586
0.172492310825983
0.170187158325577
0.165778554581323
0.159010610158842
0.156194552985197
0.154332042744692
0.146237592105218
0.138623866944188
0.134430701671378
0.130474023567985
0.126253761506128
0.121586675084318
0.117536719578766
0.113929287175057
0.110657041476059
0.10772884636661
0.1052113057588
0.103039373054575
0.101282123366116
0.0998449962729206
0.0986386388751919
0.0978052131394727
0.0974831335908574
0.0974464024498544
0.0976291563268714
0.0982378672868696
0.100374010688729
0.102821645087698
0.102517263367829
0.103670709834917
0.107555134669557
0.110930771850847
0.11326769051546
0.116774221823351
0.120829742309376
0.126300468976144
0.133127662623442
0.133543914616684
0.133849843994701
0.137582932687119
0.141537573507372
0.145627295519431
0.148657116127975
0.151916970057351
0.155548378353933
0.158151160122418
0.160666606004033
0.157326841889676
0.153422709136947
0.155350544739727
0.157361869798291
0.154659571081052
0.153869604200448
0.154634530989622
0.153828956933485
0.152169290569079
0.152450602338764
0.148817887401333
0.14520568810802
0.144376910935862
0.141570001979897
0.140094662345229
0.138937218944797
0.139432357430809
0.140773321522211
0.129452249376966
0.119127960425418
0.117957672062705
0.118628299112546
0.117607249320981
0.112720412958451
0.105935168656563
0.103699587988125
0.103687674657204
0.0996641121263028
0.0943139227397733
0.0906486109098214
0.0892220635049929
0.0886463719247974
0.0877434391783265
0.0881922397224094
0.0896155046358034
0.0909990876310056
0.0913142936743225
0.0905350810998283
0.0928494443182006
0.0969874026532665
0.0997460849478824
0.099872985753348
0.102145527214443
0.107094799078767
0.110449393796155
0.107178150648164
0.106457966242704
0.108251600064667
0.110095497585992
0.110555071027473
0.108762138852289
0.1079214463495
0.107596619855731
0.107041037919081
0.10807313426981
0.107694239990399
0.102378003429358
0.100080616610225
0.100222282625092
0.099472904167934
0.0981494090889863
0.0986241760170142
0.0991084021232981
0.0994892410250228
0.101515538251426
0.100536293012774
0.0985482992449529
0.0990385304482134
0.100351438241933
0.101205371277746
0.101840080211927
0.1032649015363
0.104517139692611
0.1050274370014
0.106604462397266
0.108489494188059
0.10885800276316
0.109544122063103
0.10900503389962
0.108217595146438
0.109386993366968
0.111132730168633
0.110951462735396
0.109999338885084
0.109916463702439
0.110017597252125
0.110060779160969
0.10973692545316
0.109487927859446
0.10774054526982
0.105552946467856
0.104455316385474
0.103117503371008
0.101882555924436
0.101197070825309
0.0992315670332443
0.0963539646030627
0.0949097005903008
0.0949046268926388
0.0950471062643242
0.0950405773278013
0.0956791221602309
0.0967253585472915
0.0976237168579329
0.0984866164052482
0.0995575763789815
0.100747306068018
0.101228928703787
0.100673068701085
0.0999312994316782
0.0992904620139014
0.0985716631024232
0.097650935394476
0.096574107398773
0.095437659694108
0.0944919835308549
0.0938782337165262
0.0938674463751198
0.094029061709266
0.0938117248856582
0.0935674350895021
0.0936214711462771
0.0935702719323188
0.0935263371089212
0.0933023999270506
0.0929348016787681
0.0925392326173269
0.0921657557961886
0.0918557505215166
0.0916076523348479
0.0915104116118251
0.0915254947468984
0.0917110415054853
0.0921734152137064
0.0928846524525595
0.0933029533623079
0.0934922920005218
0.0939838124468631
0.0944235734184417
0.0946306029468841
0.0945379362929352
0.0943414733032471
0.0941913622116884
0.0940756537757579
0.0939967334223268
0.0941568955223297
0.0945283543640487
0.0949067070344214
0.0955509376674643
0.096435393816048
0.0973149936242311
0.0983724766560506
0.0997010665695933
0.101138203374183
0.102715230669698
0.10439587950672
0.106204321075549
0.108095746267485
0.110217396678038
0.112427566342525
0.114554653930352
0.116586887032745
0.118446932773903
0.120002683403533
0.121044246999522
0.12175978955984
0.121957314857843
0.121486593999152
0.120469911228843
0.11888203377661
0.11684020893473
0.114659479782255
0.112360233967252
0.110017099018511
0.107819330304424
0.106092492693351
0.10486443413773
0.103997094594047
0.10353693814124
0.10337450674184
0.103143511152889
0.102518064362565
0.101385185997339
0.0998346314191663
0.0980799182296827
0.0962797776461652
0.0945163341401762
0.0928766692628413
0.0912910590187147
0.0897931117420772
0.0885565968482613
0.087720927357101
0.0873138884389756
0.0873828953012364
0.0879883097579621
0.088953942363102
0.0900435780282965
0.0913508539430239
0.0929373974603549
0.0947271083010435
0.0964886243353136
0.0983118773621345
0.100246244381762
0.102064735256337
0.103726186380191
0.105390688328661
0.107197381104321
0.108849769418809
0.110224962934107
0.111495048496969
0.112731304199673
0.113815256814643
0.114594655518171
0.115238885862307
0.115821602291186
0.116554164667209
0.117300193341532
0.117862681551941
0.118656485383543
0.11966602437918
0.120748504577038
0.121920897932401
0.123204247954287
0.124571604100784
0.125941261143991
0.127180727499793
0.128352723902239
0.129633562546809
0.130799684552991
0.131849878454833
0.133003417096193
0.134135779708268
0.135354665608961
0.136884130421781
0.138459995210545
0.140009412462582
0.141794985872608
0.143861080464199
0.14602319452975
0.148881881516584
0.152252009952609
0.155951674404111
0.160209927445237
0.164879244220342
0.169513829399969
0.173919313860325
0.17828093464615
0.182072721764277
0.184791815794146
0.186851239893411
0.188333275175145
0.18969406888655
0.190814525089973
0.191881743127416
0.193201848352278
0.194883771338837
0.196758716921176
0.198650362918638
0.200476980125371
0.20230092855099
0.203970040455417
0.205451134325096
0.206561242379034
0.207475368776469
0.208453000173741
0.209609511229953
0.210899461349937
0.212489914628244
0.214126669193424
0.215784489755277
0.21750715115778
0.219009741090918
0.219963134436548
0.220270747169876
0.21966807785122
0.218485704966224
0.216710135767295
0.214334576441797
0.211528337116666
0.208661326295668
0.205745866366833
0.202649473221047
0.199445441113918
0.196203544379799
0.192818700880108
0.189211029957709
0.185314937226866
0.181598114865007
0.178178564729184
0.174921389557907
0.17174962846426
0.168956002647004
0.166600258540755
0.164587977014535
0.162906241247996
0.16135825575796
0.159800378723578
0.158389601499493
0.157169526602521
0.156057248053406
0.154797567416832
0.153602411516938
0.152487758600531
0.151633784525103
0.151006374653593
0.150050350013957
0.148964500795338
0.147776146702047
0.14622260678014
0.14397541165628
0.141092373662246
0.137948266242057
0.134745739905691
0.131664900834668
0.128958785667072
0.126470472852885
0.124045207487267
0.121846929499752
0.120161442912841
0.118748010463714
0.117476348792996
0.116494054122548
0.115628118929092
0.11485964042742
0.114478518357129
0.113895004576161
0.113434014694857
0.113126298115033
0.112455722798522
0.111714228449124
0.111386305085271
0.111568435625757
0.111391065739653
0.1107160976676
0.110159857201885
0.109662077955378
0.109016373120848
0.108237580894707
0.107294851852681
0.106069371628394
0.104983754141401
0.104144435016109
0.103283418945683
0.102503747660241
0.10196415025084
0.101480471096629
0.101171204737506
0.100975173835671
0.100509841224241
0.100126544369248
0.0999481249445555
0.0994122504029493
0.0992190254638961
0.099238635485628
0.0990669270461527
0.0990656799676083
0.0989144053485356
0.0988084722056373
0.098317163073846
0.0972498293984112
0.0965741338078004
0.0960021799845777
0.0950147371903723
0.0941466181673673
0.0936651991188927
0.0929523225691852
0.0920048052204206
0.0914303323980085
0.0912995553568682
0.0911683477434605
0.0906317329989101
0.0904620436824264
0.0904302623669053
0.0902943148088167
0.0904245047326873
0.090933407343043
0.0916936627091719
0.0925813900637626
0.0935314262622823
0.0943750958815095
0.0951803468719535
0.0961231407989545
0.0965383066973456
0.0967297206242744
0.0969008081248662
0.0967004897131693
0.0968928660512761
0.0976651671761513
0.0987383783324707
0.0993906306532488
0.099918402237119
0.100809212253361
0.101600054719281
0.102550595683397
0.104210801340435
0.106056630249395
0.107924073155478
0.10927469336736
0.110184360597451
0.110514026597133
0.11080109069683
0.111109056542381
0.1110388872852
0.111608974106839
0.112375477310644
0.112716284014263
0.114084288960827
0.115444606631844
0.115804359650424
0.116181839958804
0.117082946497956
0.118117029245812
0.118829809158997
0.118811317810193
0.118647446462176
0.11901869119314
0.11900629794034
0.119188292609638
0.119878327534876
0.120274412812381
0.120850231137027
0.121627864854637
0.122050743742907
0.121972123020721
0.122516098729758
0.124283427242779
0.125372367565724
0.12549435623589
0.127066274821565
0.128504805334506
0.128111327085658
0.127906881256799
0.129006688175229
0.13034619568425
0.130675039979886
0.130619718926278
0.131360663196594
0.132987527721656
0.134689713825899
0.136158218578947
0.13715545996066
0.137966982771539
0.13928781673677
0.140182347114232
0.14096960550697
0.141297175134223
0.142847110640981
0.146342395202445
0.148818394973876
0.149035116390499
0.149807204167013
0.153140838220448
0.156743185169877
0.157784907329781
0.157193349177594
0.157142481348553
0.156888600321565
0.156878282408297
0.158546101327575
0.158835538956716
0.158967008677396
0.160562069885098
0.160499726851056
0.159429805263006
0.161205544102342
0.163416535584913
0.164298789791187
0.164488499605891
0.163256150752669
0.165177812826723
0.168000018819875
0.167876782236961
0.168676954362973
0.172351344769351
0.172190256444478
0.168878508189558
0.170710098722107
0.174773558224142
