1798
3999.43349933624
650.420452594757
1
2
4
0.00490103675146146
0.00473528264762767
0.00413801181216892
0.0039930434150135
0.004219652482816
0.00440601632243331
0.0045107910126061
0.00414920760468624
0.00374467648058568
0.00426624318665435
0.00470198462340703
0.00434921260031812
0.00404709713521453
0.00419341703882515
0.00448962617789286
0.00449767349885296
0.00444357305108301
0.00400477973995444
0.00355463849696031
0.00445733194145521
0.00500835924604387
0.00446070031973473
0.00449504451569569
0.00451504831358945
0.0039665862217003
0.0039117058966464
0.00437622340469908
0.00452630149928044
0.00406003555329722
0.00402546019198825
0.00490149707908866
0.00513207301367522
0.00484622418583149
0.00512153948680171
0.00494822198731646
0.00452918277581144
0.00460318671289544
0.00472582809229243
0.00459379844704976
0.00497998102556422
0.00518772451351059
0.00460049866565514
0.00423497509164126
0.00420117621476063
0.00397878435497913
0.00391895493997483
0.00406547307975774
0.00398567055667161
0.00410216197421931
0.00449863456245191
0.00521804177038275
0.00549866624707147
0.00521374599964701
0.00492363658229722
0.00444680354376835
0.00424593397941769
0.00417462943935966
0.00435933653409384
0.00444593005581725
0.00414793351483131
0.00430505265951527
0.00446134653540639
0.00398870168008158
0.00416631760410994
0.00467709365797007
0.00458003776698666
0.00448174135875047
0.00466526967037216
0.004865310961023
0.00474580046654809
0.00405900973624047
0.003835094332615
0.00421310480909676
0.00459237845818733
0.00442738184146088
0.00414717386406996
0.00408146055465844
0.00429498332419834
0.00491643069082554
0.00505864122904145
0.00431482136930636
0.00347280150738167
0.00338352414188097
0.00405191781284983
0.00439715397861359
0.0044650154765001
0.00472735377991852
0.00525826951278088
0.00526733158915046
0.00468709350896422
0.00420278626899472
0.00427354924629277
0.00490860503461339
0.00487757130456921
0.00438001488024938
0.00439868524422855
0.00449779298719306
0.00435155811055384
0.00464550913999389
0.00491573938157439
0.0047331370505286
0.00455181238531122
0.00465753715659637
0.00478102207030769
0.00437335717446062
0.00440485537583914
0.00472498164278496
0.00450903571538369
0.00433506375301708
0.00401971184953884
0.00415418101592568
0.00446996925759125
0.00449116323149468
0.00472716180939628
0.00465107589861884
0.0046571661857999
0.00484636880014895
0.00457241005103279
0.0042747857677082
0.00461701195142118
0.00483768566298017
0.00441954142113128
0.00412935991117438
0.00404597242509002
0.00407697193875292
0.00425229876808223
0.00418382284648395
0.00447153492618429
0.00493859327458654
0.00508953310388469
0.00473021488096757
0.00462662174394882
0.00536558564180677
0.00580681523552853
0.00520140606372239
0.00438784366567529
0.00461306591858916
0.00482307491045084
0.00448346786593421
0.00383350775297487
0.00427219488836483
0.00548780436927691
0.00530462432325886
0.0041490797039966
0.00323425087095125
0.00367019338344947
0.00479174075712198
0.00534027412533132
0.0052603579499223
0.00495889128727319
0.00456908499200473
0.00454320834840631
0.0050471687015063
0.0050071756091888
0.00451484075355177
0.00496776908026378
0.00544505093724583
0.00514735649277265
0.00467553674023051
0.00486621172413818
0.00457438705935794
0.00466654592120237
0.00521105965652181
0.00532091105346206
0.00598672141702547
0.00587951531495384
0.00445606117939499
0.00410174515700357
0.00485410280041851
0.00508264335794104
0.004714346284806
0.00483859592278351
0.00475324096262219
0.00531989992036733
0.00539952190667465
0.00468878512821658
0.00482234952656044
0.00535622180970318
0.00497129313755078
0.00431892428740951
0.00451496125237335
0.00446233525385408
0.00444548972275273
0.00541970100863805
0.00586356775829651
0.00572606722963365
0.00560323450332605
0.00515182427347222
0.0051657743182265
0.00548348911512201
0.00518325307560903
0.00521693700003288
0.00505282387760234
0.0049274081286019
0.00543428788901728
0.00582684356898573
0.0053699873149205
0.00482466393127519
0.00560149297471921
0.00639012577773263
0.00588471901700336
0.00517687533252492
0.00503792055503924
0.00555496252015036
0.00618440230804799
0.00556083594990078
0.00566870157439599
0.00620832397931107
0.00607876682179893
0.00583184291102654
0.00642597717730504
0.00645155775535388
0.00577089073893128
0.00584175989890111
0.00585516906595765
0.00586816544107143
0.00572081592840396
0.00500772250744295
0.00510065737783758
0.00570234841133986
0.00638606852154966
0.00592684324002111
0.00590295348402412
0.00713461352449485
0.00684006149532867
0.00545346752698913
0.00573096580767136
0.00645706906233171
0.00591616934556748
0.00496889606138055
0.00568523290337057
0.00596604418609544
0.00608395797219976
0.00577663781688693
0.00531715893255021
0.00539745725092253
0.0059597217978498
0.00621413958067443
0.00636184795314601
0.00623541485088469
0.00584512539325958
0.00611945688033194
0.00617549469063531
0.00594360853668509
0.00624553242529237
0.00655210209581108
0.00652905581782142
0.00610284829091805
0.00650870558042444
0.00730346087476165
0.00577127748710877
0.00548992472588647
0.00693674670797776
0.00750362317964949
0.00768091577944041
0.00757854400850647
0.00694693252867031
0.00573302999158062
0.00556837536703882
0.00652411272917571
0.00656307174206739
0.00658042819126902
0.00655163864985669
0.00651626776917949
0.00647483740887016
0.00617823555232228
0.00602608808965697
0.00579731029197087
0.00637927185568096
0.00723534244325863
0.00818147854005641
0.00845123387419864
0.00804898791574197
0.00805438726727795
0.0067660671090218
0.00616105071005267
0.00596471268849363
0.00645625521201189
0.00665270390874556
0.00732982778932443
0.00742468767594437
0.0074378079428411
0.0078761511738687
0.00686278452137034
0.00684961135733345
0.00845336261616983
0.00822617877199821
0.00778569783608389
0.0081948084189296
0.00776715038665638
0.00694723082958751
0.00704918709322159
0.00750000686309416
0.00726985046393823
0.00670307519502343
0.00674417388609867
0.007130741674871
0.00790859039308785
0.00817918362805888
0.00786443216899716
0.00764661944279685
0.00763266428359016
0.0075654221339258
0.00847847895344919
0.00912622385772132
0.00826562724085683
0.00729918670355817
0.00779201276755207
0.00836798006244201
0.00778317452969921
0.00749288625273793
0.00839463081435507
0.00837023108585917
0.00887108808171075
0.00948788172954221
0.00876050233594714
0.00810696651624953
0.00840621932017344
0.0083030296264079
0.00768760876375775
0.0077452664602547
0.00829331279074795
0.00772475276848917
0.00783249375007841
0.00825493462421572
0.00825698912294734
0.00763333270971704
0.00799545438937463
0.00863058393080968
0.00859155078259665
0.00788906215602064
0.00790450270477623
0.00898117072682665
0.00931468986102687
0.00832863683847759
0.00816410672501356
0.00831264160553158
0.00759167602386465
0.00786747444788267
0.00851858086334713
0.00875160672346027
0.00851877976648766
0.0085714089591885
0.00869017887064842
0.00903056732653331
0.00892936249461945
0.00885375276066821
0.00857635810060837
0.00800700279447315
0.00810681431517282
0.00835065353068588
0.00885455355728466
0.00904762192104256
0.00877662503813112
0.00878074583806855
0.00897522403808398
0.00854587198937904
0.00835770531653825
0.00856641106483815
0.00825067264279111
0.0079891289988644
0.00801568621992207
0.00806871178312023
0.00828691690946697
0.00809530542905003
0.00830844077666178
0.00852246010255896
0.00853224192644096
0.00883591257778609
0.00885411350054996
0.00845873864499374
0.00871065236715651
0.00894251124637952
0.0088166574943478
0.00809452331709602
0.00805052079821258
0.00857935911667559
0.00853732567500119
0.00892114841874324
0.00851530886831185
0.00825677143722291
0.00878399194911356
0.00919230259537784
0.00919387058038644
0.00850685658649376
0.00805458604092299
0.00837503489005062
0.00843844623221969
0.00821994913568378
0.00816077105806408
0.00839380618355383
0.00851247254991755
0.00839697382953913
0.00795895685579038
0.0074609982779699
0.00790297718392584
0.00800994637889214
0.0081329070720308
0.00847980353970222
0.00833106306882103
0.00817644182187594
0.00840950462595619
0.00847173557422298
0.00823774921396239
0.00791472651643496
0.00783902095158708
0.00861129847243065
0.0087132100607648
0.00799390908111847
0.00770383523794281
0.00811207415397806
0.00826086752712408
0.00787549573609438
0.00776150177678304
0.00802276048958722
0.00803986869442449
0.00838058282829736
0.00832239939848552
0.00776654790760463
0.00837269072635732
0.00861791909184785
0.0080495639353717
0.00791516922905295
0.00766297970623985
0.00755190182628206
0.00779532020524131
0.00788635688109791
0.00832078652154413
0.00859380080700188
0.00843917914234413
0.00789820570936493
0.0071660584678024
0.00681759996961093
0.0080854013816011
0.00860984228229813
0.00810646213968833
0.00832419441104814
0.00820143906388992
0.00801591196648713
0.0082860936814525
0.00820171190908501
0.00801092962882515
0.00847760272020748
0.00849377480324319
0.00788000068859653
0.00780417845989633
0.00824293324426079
0.00770701868228049
0.00708253096328486
0.00743780441115481
0.00780453279571147
0.0078549867198282
0.0080208066755347
0.00796148567655933
0.00745623709519283
0.00730612222462272
0.00752922782648883
0.00764813759397682
0.00763028250285918
0.00762348880882643
0.00731826923416006
0.00711697007163736
0.00691668187751354
0.00673730655165712
0.00707781210511405
0.00740491529040907
0.00751197072535451
0.00758918703870528
0.00721190132963962
0.00712978743159442
0.00760448553172864
0.00732352121454867
0.00685787119304436
0.00676599120508503
0.00708416922893606
0.00715536286863893
0.00698230868291485
0.00666245002169746
0.0061744911217793
0.00638888140468115
0.00721079289049098
0.00710117174905772
0.00676124824635207
0.00659242626902135
0.00678196358945166
0.00733142863387683
0.00768625493012237
0.0067771543508015
0.0058593134810358
0.00610886674177751
0.00647415811626028
0.00638624140937458
0.00645233818258069
0.00673490363138366
0.00696788332332464
0.00706166756567613
0.00677599508728802
0.00664796331310273
0.00671309827614999
0.00691942753723048
0.00694997883173226
0.00666660616470514
0.00673575297466046
0.00694042732295601
0.00708422161855129
0.00683615280769869
0.00630069501708041
0.00645027525391149
0.00652807476506144
0.00616373411105913
0.00625400254491462
0.00668007172544298
0.00684611701597519
0.00695647853406962
0.00693165027723412
0.00707475495954452
0.0068976419242474
0.00653680496053082
0.00661961175223891
0.00633807755218755
0.00604257827698632
0.00632166625701992
0.00651583625039835
0.0065714806459238
0.00664851565153581
0.00689250300723677
0.00717127703095913
0.00735061117017689
0.00734063733038305
0.00705826313167993
0.00690152983640361
0.00696844281967968
0.00699903702468962
0.00741437247592567
0.00808144873430415
0.00816001176553673
0.00810818046345955
0.00853253385987651
0.00891925363439437
0.00932984631040592
0.00982041402438323
0.0100843261258526
0.0106642219050945
0.0113887972235296
0.0123361725923304
0.0137644898869097
0.0151237368638137
0.0164773120395817
0.0183909791442049
0.0209258257509458
0.0238694406230472
0.0277798134048758
0.0328143182642431
0.0381197734856235
0.043949068409959
0.050566544826453
0.0571713093963881
0.0631773003037276
0.0680753428484163
0.0724098406641639
0.0771681326284163
0.0830628823949968
0.0896339847249723
0.0944425465357406
0.0949535695854738
0.090805847510489
0.0830146520625578
0.0739136748036162
0.0664094841081991
0.0615658924779708
0.05892525238656
0.0588104557561366
0.061500356813955
0.0664092831320119
0.0729143935892512
0.0799159622731514
0.0867546331104465
0.093782897178488
0.100794712863842
0.107758115572924
0.113716971091385
0.116881170191873
0.117220250526721
0.115469957233663
0.112756148154968
0.109830126584492
0.106322498469461
0.102395050584671
0.0985643885246039
0.0942195241236867
0.0890667435257511
0.0838757283783666
0.079415793851661
0.0755258428049771
0.0724713567319271
0.0702622761856664
0.0685762900371915
0.0678242252497411
0.0678628947426201
0.0683776997079968
0.0698490871307212
0.0718523798481894
0.0733712213650347
0.0742457156574455
0.0744775019638457
0.074867745079642
0.076375257415293
0.0785776416281513
0.0792275570153501
0.0764489850358594
0.0704903525538117
0.0625966629607397
0.055163109886712
0.0496792897661284
0.0457230068382305
0.0432644842082565
0.0425951602579901
0.0433365167480458
0.0451048239173911
0.0484012099396436
0.0536049288697786
0.0599496991357912
0.0664436277721114
0.0714614659490529
0.0733342155821969
0.0712034215982027
0.065516768118079
0.0582114940455139
0.0510327670127994
0.04518679911043
0.0406230346607067
0.0366917821489021
0.0337278660848377
0.0316122322842332
0.0298193398312975
0.0282106201588366
0.0269361759888776
0.0260690674791428
0.0251976475502767
0.024215820095619
0.023244635730484
0.0221519263717949
0.0213378865696171
0.0208149746505758
0.0198919921105608
0.0188124196114246
0.0183554325109819
0.0182321314070197
0.0178278629532215
0.0173991421071001
0.0169182627690342
0.0161695358729063
0.0156217507514155
0.015361383842635
0.0150766375848333
0.0147548802221088
0.0143641643588059
0.0140696688364912
0.0140392215366848
0.0139703875986132
0.0137297126658271
0.0134015974129427
0.0130045381368249
0.0127253143555954
0.0126382155241704
0.0125257547773264
0.0124888241315406
0.012600759376941
0.0124680136709064
0.0122129985114219
0.0121155950095443
0.0121148071381875
0.0121894432816825
0.0120504875917897
0.0119875811496585
0.0123187109037129
0.0125199042649294
0.0125668221005112
0.0126688816028206
0.0129980616425228
0.0132542785096344
0.0132420331496341
0.013672639623315
0.0140999270048971
0.0140830971848525
0.0141051748572385
0.014141698102641
0.0139550665433622
0.013672898165439
0.0133024794709536
0.01302305664855
0.0128986251581917
0.0127521706442286
0.0124748493114888
0.0120280498071249
0.011801880236175
0.0119345641177579
0.0119089797664556
0.0115818804735627
0.0112648705969267
0.0113573226888575
0.0113279192687795
0.0110718771556633
0.0111760913321707
0.0113738662234635
0.0112576032659676
0.0110128473100852
0.0111015610107236
0.0114139775199008
0.0114658608977939
0.0113010825763491
0.0111438558097185
0.0110543797760177
0.0109666409832045
0.0108411243672043
0.0108753695942479
0.0110024589177156
0.0112270814975634
0.0113974671400966
0.0112491729886872
0.0112805422578751
0.0114935807096888
0.0115542150326424
0.0114360323839306
0.0113171518609067
0.0112158140658435
0.0112096412434341
0.0112903765816183
0.0110871583951683
0.0107933508875866
0.010883475517054
0.0108562351196476
0.0105822023062692
0.0106892984008742
0.0107442463046579
0.0107140163993872
0.0107621769052857
0.0105742464776007
0.0106795135060571
0.0107785252102381
0.0107171643982545
0.0109341475738857
0.0113119599362333
0.0111613385897287
0.0108981106614011
0.0106596690477412
0.0104590553933501
0.0105724680831682
0.0108016726251887
0.0107812506251024
0.010557260017651
0.00989819511045356
0.00957511219844846
0.00994503616855896
0.010076105230608
0.00988816160712474
0.00994094555330436
0.01032684966542
0.0104429647319335
0.0101507313354437
0.0101620043527689
0.0104853033528644
0.0104095463270478
0.0102319074172897
0.0102300497816874
0.0103195260453229
0.010499301493343
0.0104990719731998
0.0102391158591838
0.00988902888425827
0.00955867654846666
0.00933306804669571
0.00956603477159814
0.00969386840570588
0.00946035925276424
0.00927493821019631
0.00906182192613329
0.00880804283127117
0.00916410627909655
0.0098818553635905
0.0100668777783453
0.0093055350654734
0.00856104593095029
0.00865211464014953
0.0088309805483568
0.0086208841546615
0.00826718388644847
0.00835162677564383
0.00876880214311314
0.00914600436819485
0.00941109176359174
0.00894040153867322
0.00846253988548081
0.0086501978605627
0.00892495096009731
0.00848357606722609
0.00793647906776969
0.00807958739446177
0.00860384923438748
0.00858629136784627
0.00852285817136182
0.008804542454789
0.00862418006929388
0.00830185433797844
0.00848402876847671
0.00860397199744218
0.00841968314085027
0.00809035295993949
0.00806796022816453
0.00866880071529838
0.0085246966668983
0.0080913742969734
0.0083156931099309
0.00874751616764
0.00862693556865219
0.00825473934011748
0.00844604393863196
0.00878890115453668
0.00858382626822695
0.00845217980252612
0.00877454972338261
0.00878046344677991
0.00848840031493388
0.00829633922660263
0.00855271569455844
0.00873776531631962
0.00831281494114128
0.00841865705670729
0.00857725553713826
0.00892856946050405
0.00890788875114278
0.00843833433516015
0.0083740423707504
0.00828997385556175
0.00822245784310979
0.00864151963071685
0.00855569497417408
0.00875598991467727
0.00869817265731198
0.00848369903813512
0.00901643625063688
0.00891964470060361
0.0084646841345174
0.00828589763099861
0.00837874622614195
0.00840339401655439
0.00832578119415137
0.00848605861459993
0.00870234123466399
0.00881048882076356
0.00874178037607844
0.00859750715872204
0.0086997218593983
0.00886420175829324
0.00871486202056269
0.00832633900137663
0.0081865049614749
0.00805335610733292
0.00813805437811822
0.00828423404865427
0.00822357805477167
0.00816606647819576
0.00841060216066328
0.00822358194332501
0.00824913179939705
0.00832272114999679
0.00809670611434151
0.00789424420290382
0.00789159049876497
0.00830485761833865
0.00854021142622739
0.00863042606460765
0.00870575161174286
0.00893255429248134
0.00931370284768461
0.0091383768560103
0.00855003664417048
0.00825948856568624
0.00868290891453293
0.00858968787933983
0.00813150185869506
0.00839820368215727
0.0081571449949634
0.00794636490872158
0.00815460842823053
0.00802912697933459
0.00815041287426656
0.00839778588025485
0.00842990803616849
0.00866087558315231
0.0091623913297365
0.00895565737852333
0.00833396849299355
0.00839158732664457
0.00844106658567115
0.00830431783161037
0.00829062298465524
0.00856495126471967
0.00918977230478233
0.00956243117093496
0.0094348241463799
0.00935053746125016
0.00930541264398028
0.00933159987155118
0.0093068805333995
0.00913664622164575
0.00911469785165555
0.00894861696412802
0.00889802700019987
0.00934180132826813
0.00924600077974622
0.0092954343496373
0.00938383363287992
0.00895272474515853
0.00892518508738129
0.0086874060112121
0.00890652123724386
0.00970178608230293
0.00973020151910915
0.00957271237652404
0.00955675563654162
0.00948222190521844
0.0093535348315056
0.00884129797923867
0.00851981438415532
0.008734693728871
0.0086227790338037
0.00842434227920049
0.008476743183841
0.00870737191052182
0.00925674160590004
0.00897229192145835
0.00868417412804913
0.00856422564227191
0.00847982178669817
0.00788000842266133
0.00774194207991233
0.00815258552933507
0.00807909204184074
0.00777238850624244
0.00761308526774101
0.00824622083652728
0.00884082506163881
0.00949536780561175
0.00914882235859427
0.00871436830427618
0.00984472260171054
0.00951808353771249
0.00802238638127304
0.00785034636141392
0.00849069272152705
0.00832508669726038
0.00783257661561372
0.00688041469016635
0.00665957055352305
0.00874536403999099
0.00910958407939858
0.0080378145306993
0.00874848444571527
0.00971652896537697
0.00882235718832659
0.00655822790314691
0.00579704021378361
0.00591291172823051
0.0067268671198718
0.00745184412660603
0.00775948310710995
0.00772659766591478
0.00728051058996401
0.0068691803624771
0.00706665431888548
0.00797742136972736
0.00855415945033475
0.00707079892150524
0.00636798913144527
0.00780063269395903
0.00886634235453983
0.00811287813093268
0.00669979609121687
0.00629458301178409
0.0072431136626135
0.00846573297074419
0.00900074198067989
0.00877630639818059
0.00879512840637629
0.00822962997256228
0.0089196214815694
0.0103836360794936
0.00576593202753887
0.0018566071969962
0.00354957162862686
0.00460135335390713
0.00525549675710007
0.00597500487389583
0.00601956350112615
0.00613713298830609
0.00660494474721808
0.00640987771092341
0.00679968521477617
0.00726368165868281
0.00695334665850735
0.00580787642908901
0.00575587475988467
0.0063571121022463
0.00629217967281726
0.00649119639164592
0.00696854312467509
0.00757911676506763
0.00831237168192183
0.00849645232785067
0.00817249434758423
0.00816323232091387
0.00745931231522555
0.0085745792556767
0.00998967340825577
0.00909018742214714
0.00806906600252656
0.00843403403539956
0.00856636993194789
0.00850907574605511
0.00849630469731675
0.008329179912858
0.00754457115127932
0.00709839632152145
0.00741911338274176
0.0079782348325141
0.00888471649693967
0.00909631611316766
0.00814901477348712
0.00815823219697246
0.00894301131497018
0.0087141662344105
0.00876555374885306
0.00924709469546947
0.00935872892006943
0.00907269857989859
0.00799121666471245
0.00803023122437983
0.00872207544357692
0.00845355460786355
0.00838558030331926
0.00809115426242488
0.00773540979516946
0.00802542195473565
0.00775068927107325
0.00690298391105611
0.00718659829099398
0.00838121469656171
0.009377687306956
0.00822552933481624
0.00749135060413737
0.00890297683837257
0.0089917267347975
0.0059430312584165
0.00584439146915208
0.00793824352364171
0.00991384215963262
0.00970355944623246
0.0075013371847531
0.00613589292335671
0.00761766444467057
0.00843034013819644
0.00674149711258801
0.00584789225635123
0.00786506062208578
0.00876755555888126
0.00872077721260605
0.0081297923733301
0.00762384737058227
0.0065030920204186
0.00448422968232794
0.00431848178135179
0.00613531286315703
0.00709811663116888
0.00691392752283209
0.00797773312992947
0.00869498341950684
0.00853455317997519
0.00959444397722322
0.0093522638931931
0.0082000018950191
0.00815625909666106
0.00903881655373086
0.00960664376422736
0.00846268239053877
0.00889854796842726
0.00839915181798174
0.00474561472213961
0.00495791754052489
0.00818947980682064
0.00941525731335796
0.0097787521984192
0.00884575456735592
0.00736275879750168
0.00706896400724612
0.00633187774953198
0.00666972442438662
0.00693675930150341
0.00687281197387278
0.00755332006430064
0.00831597976303879
0.00792377398679239
0.00784822326224667
0.00799546799888522
0.00774944443048696
0.00833793383623943
0.00824941669951268
0.00717106657992192
0.00763414755240004
0.00892841148798538
0.00927573610095768
0.00868105022947436
0.00837232658040001
0.0087772757297794
0.00836848230529463
0.00795605643866377
0.00851760430543053
0.00906501363459732
0.00902001858839758
0.00882604748035232
0.00831768868108874
0.00821778172115308
0.00845625351794275
0.00872917124266277
0.00877430477954937
0.00845486267779838
0.00839019697430781
0.00837252760565748
0.00843326318481523
0.00852709824806183
0.00869981599499615
0.00916153892695297
0.00904840045737802
0.00859351762785028
0.0086568454844545
0.00908907544648422
0.00926673049870959
0.00905520572693398
0.00849535705287023
0.00813438501760095
0.00865611538104528
0.00931452799319025
0.00945011013452543
0.00942398902110356
0.00893045296872053
0.00852159623647115
0.00854041863768765
0.0086670111777178
0.00902322026789538
0.00892395098489721
0.00853219844530645
0.00866596384486433
0.0090372495735248
0.00913269889201405
0.00924258536210577
0.00931944161929332
0.00937793102924568
0.00957495919899203
0.00933324707811065
0.00899209865869086
0.0091356598916376
0.0090524715095952
0.0090315947705918
0.00930687050245613
0.00934787385975205
0.00940275289047896
0.00929840282557717
0.00925774140084303
0.00918446985596104
0.00926667010223722
0.00934140398205175
0.00879347152010689
0.00845957838718796
0.00894203137162644
0.00943111268377955
0.00967040916835055
0.00948670071975082
0.0091075359752037
0.00912464563733141
0.00945222250511803
0.00959942107490923
0.00945455967469764
0.00944190017554506
0.00972944076247938
0.0100765505383176
0.010042919864104
0.0097194478506143
0.00955729337217047
0.00944724107964712
0.00942280841374018
0.00976964065209036
0.0102877062555826
0.0102054773705915
0.00999224176259405
0.0100940425097816
0.0103534561193689
0.0101581099238264
0.00990390211299184
0.00989935188072455
0.00979154538422297
0.00989208096712688
0.0101008844874539
0.0102745099405803
0.0104402538166994
0.0103579387020603
0.0102592003024668
0.0107694870072102
0.0111487053826631
0.0110384921400977
0.0106108805041893
0.0104622353452833
0.0109598681151411
0.0113962085597171
0.0114088939087997
0.0115244675579449
0.0120362121786441
0.0119127389552173
0.0112416450114732
0.0111345281971962
0.0108926347751097
0.0110039107693632
0.0115705491974731
0.0119014419542355
0.0121180033706022
0.0126449981853495
0.0125584761852405
0.0122194102526349
0.011640099440069
0.0113261949884473
0.0116999807804104
0.0123278403880721
0.0126039411851611
0.0125181122767229
0.0128908467667028
0.0132824691951652
0.0127466058185599
0.0127781563360664
0.0127390629534947
0.0127164185477389
0.0129158780102815
0.0133238795591478
0.0140225299153154
0.0148630886634815
0.0143619616627827
0.0136641715422406
0.0138332254374742
0.0141620012656394
0.0146338640030636
0.0145404220092143
0.0145374343453444
0.0147382766551372
0.0146685814064484
0.0146982560063635
0.0150128879869693
0.0153684972887137
0.0153687402139189
0.0153732298425267
0.0157530341806512
0.0166230866265791
0.0169908473992161
0.0154063251177481
0.0150150029463964
0.015243465565052
0.0150541853100424
0.0148887795654041
0.0148159494579522
0.0150027079262954
0.0154335599644888
0.0158243486780369
0.0154887406795502
0.0148867020705807
0.014725944332294
0.0148637762196602
0.015167746258891
0.0150829609722262
0.0145340105573959
0.0138948021983793
0.014040144556634
0.0145609800766293
0.0140785303321479
0.0132831826712078
0.013236376673672
0.0135467274918126
0.0137181704985337
0.01343656227699
0.0134247245767248
0.0133787792175711
0.0131752195701695
0.0132127109794395
0.0134024085527661
0.0135620369815528
0.0134985450777418
0.0133351000019226
0.0131976069208975
0.0130161105137059
0.012929029013098
0.0131050342759161
0.0132409900686541
0.0133579637229204
0.0137267174313
0.0143373937958948
0.0139157316745987
0.013266458563857
0.0134955245014657
0.0141135365233298
0.0140452299568046
0.0139034817596824
0.0139223379178049
0.0144325073400635
0.0159373380052725
0.0157954543245281
0.0140891623572902
0.0136862550707733
0.0137574700084819
0.0141446039391442
0.0143709574924505
0.0143787787914656
0.0146757347937319
0.0149870317915428
0.0156149060708341
0.0152449114248656
0.0141705003590405
0.0141339258334982
0.0148827622605049
0.0148181559537399
0.0145133805605612
0.0146129487353652
0.0148184027280453
0.0147062332377485
0.0149288606489977
0.0147872984427979
0.0139107812335212
0.0137521080173636
0.0135412813969448
0.0134670713377964
0.0135555800215656
0.0137697148616252
0.014544819312524
0.0140831011888371
0.0129996932774757
0.0128137930131665
0.0131926782533219
0.0139675397517419
0.0144161585428742
0.0140256188505035
0.0139794623157901
0.0145861571121504
0.0149218955540701
0.0149537154400693
0.015175171466693
0.0157066290801478
0.0165667340488826
0.0173688698655014
0.0183041912005063
0.0198031767580541
0.0215279959219172
0.024514527505697
0.0294948449331423
0.0356239390463085
0.0423369798418006
0.0499065194569386
0.0574228733218106
0.0633791464728288
0.0679442181810384
0.0698655783376841
0.0690197190496429
0.0694430353434877
0.0701293464951255
0.0694236929292635
0.0651737789109196
0.0574832133206332
0.0505189954595049
0.0449205105171693
0.0413377317378868
0.040320651802111
0.04048686262938
0.0383748314697223
0.0351515594749826
0.0315273260588565
0.0279089134197702
0.025028362943506
0.0234538701854162
0.0224116427892179
0.021579619309084
0.0215021393323016
0.0206368859387619
0.0191867668955459
0.0185444239340884
0.0184108670656104
0.0184681993342229
0.0181345721971761
0.018023779241502
0.018247918270577
0.0180494114607823
0.0178189053279704
0.0182090848793009
0.0181842626475415
0.0180871734397226
0.0179055121004127
0.0178228997821726
0.0178463512900211
0.0183544147759557
0.0198679827550542
0.0231870845178169
0.0305057548709486
0.0439453374824984
0.0644601643875199
0.0877747510793861
0.101326662174339
0.0956095193815086
0.0793564082345381
0.0633341140692545
0.050758185547399
0.043188656591975
0.0400725999504785
0.039361060468355
0.0399114422667677
0.0407595019077616
0.0400062226796141
0.0372291550741928
0.0335397206678312
0.030283499811595
0.0278741653420321
0.0260185755650962
0.0246730093351936
0.0236351063170492
0.0228924642927248
0.0223504317327184
0.021610676806331
0.0211026056670244
0.0210218986216254
0.021479179988755
0.0219641162563059
0.0220101088862052
0.0218318775738714
0.0213743018284099
0.0207629801547413
0.0202388588155939
0.0199106842612105
0.0195567290660055
0.0191832571299551
0.0189920861628107
0.01876641693262
0.0185330460939092
0.0188205133383966
0.0196092718454321
0.0204595172269411
0.0206845043449023
0.0204796577408913
0.0203608762020861
0.0204676699265614
0.0204880259882608
0.0202574323986946
0.0199222069480215
0.0194508059849615
0.0189847052525208
0.0187163008294639
0.0183528861362043
0.0179518812204397
0.0177808812223457
0.0177147261409618
0.0176313372184358
0.0174456039836255
0.017372051899933
0.0173886125332243
0.0173914664571825
0.01741279427978
0.0175378033676773
0.0176672762505727
0.0178046198008636
0.0181757671459129
0.0189135503478051
0.0196515978675411
0.0197786996054226
0.0193242176125537
0.0188654306754234
0.0186368688254483
0.0184246185528028
0.0183039421548903
0.0181087291311845
0.0178423445347685
0.0177697216479468
0.0178207819056186
0.0178201939775431
0.0177922182609871
0.0176718133876755
0.0176175087842033
0.0177504493900677
0.0179793452750224
0.0181364927577887
0.0183529373995541
0.0187481118249925
0.018942149099403
0.0189538019735831
0.018877525377252
0.0187127890367229
0.0184639143567788
0.0181643703298634
0.0179334445005746
0.0178782829439179
0.0178329238750068
0.0178296724825008
0.0177652785707784
0.0177847424079782
0.0178476268324513
0.0178820167399309
0.0179269293056906
0.0179454469303285
0.017947358724854
0.0179793435797187
0.0179575993792034
0.01804440344402
0.0182930328095211
0.018626343857358
0.0190229122861328
0.0198074834510172
0.0212604591456939
0.0234867371758024
0.0261406881102309
0.0286613602163236
0.0300977692832146
0.0301840084658076
0.0296801671988962
0.029096389401582
0.0284278959173825
0.0280212577921621
0.027928508076637
0.0279031818191187
0.0278408809316772
0.0273610657876063
0.0264512769104114
0.0256085517984536
0.02482035282802
0.0240640601811032
0.0233901516091805
0.0227932292673675
0.0224142128213959
0.0222212985491727
0.0221497660602382
0.022149017072616
0.022137362210138
0.0221625038199701
0.0224260186552963
0.0227022219147148
0.0228547351927402
0.0231286687855879
0.0234726314018967
0.0237443854120376
0.0240258456597862
0.0244053360383371
0.02496634454854
0.0255601651965919
0.0262387300150928
0.0271325822226078
0.0280820351437803
0.0285265321766612
0.0282901542223879
0.0278509330457507
0.0275332965030579
0.0273968635539261
0.0272880056078619
0.0272459782249197
0.0272670254166925
0.0272577170108579
0.0273675794228553
0.0275375326690705
0.0275569043444189
0.0275553591372047
0.0275959407444215
0.0276111582149295
0.0276582458096895
0.0277809810675685
0.0279519609906117
0.0280665663881487
0.0283034376197765
0.0285393666204745
0.0287776427194932
0.0291447809131165
0.0292479163454577
0.029406462848489
0.0297088088109093
0.0300204696409375
0.0302984449742211
0.0306314693667284
0.0309748286934619
0.0314737634388299
0.0320239997569976
0.0322828974172217
0.0323782455554112
0.0324884570560748
0.0326285699273301
0.0326616392710621
0.0326588623552039
0.0327639707244569
0.0327353735613887
0.0324956384935973
0.0324883705621026
0.032456779513774
0.0322869853643269
0.0321926429911824
0.0322013851511212
0.0320945578032092
0.0319850837652425
0.0322025465164885
0.0322778142166409
0.0325420457411353
0.0328890233148458
0.0332787402000308
0.0346283457523223
0.0373037325019176
0.04040277335998
0.0416376433309878
0.0398831365159229
0.0366928089541096
0.034047528826841
0.0321709920329596
0.0308205419540767
0.0298978305121203
0.0294785490394321
0.0297026447302413
0.0307483480697344
0.0332537049423663
0.0374766484700898
0.0417114211333226
0.0435870515262382
0.042018994286095
0.0380368149206451
0.034208376146967
0.0314355895668752
0.0294607296347253
0.0280537394363212
0.0270782375098278
0.0262091298071975
0.0254157481652556
0.0250671388916149
0.024614976027491
0.0241039946903737
0.0239112093461315
0.0240127869311494
0.0240707653163798
0.023987844570143
0.0242627056716162
0.0245329843355304
0.0242101244116141
0.0235466455072125
0.0227908422948311
0.0222788875800016
0.0222179619259778
0.0220007170641197
0.0219418388695608
0.021903007622533
0.021675111240564
0.0216209344160149
0.0216182927995266
0.0217494521255008
0.0218779552445748
0.0218577732836047
0.0217059210779024
0.0216203473997334
0.0218588429313299
0.0223883103221705
0.023590995901364
0.0256336565843226
0.0275635607239751
0.0279022968839406
0.0267405526522181
0.0252179909803521
0.023639141086982
0.0222903337201587
0.0217557833922193
0.0215925053485818
0.0211762101891211
0.0206464706674941
0.0202210863266578
0.0203883039135466
0.020632305173348
0.0203149388062055
0.0199269240926137
0.0201248960681739
0.0202764609467924
0.0201055733825566
0.0199709444845291
0.0200260416561225
0.0199862773604913
0.0198357130178744
0.0200466763833092
0.0202829428390237
0.0201123679031361
0.0200767587513942
0.0202756151186966
0.0205232215773099
0.0209192759683383
0.0218993210903345
0.0243573904294241
0.0284228113889836
0.0305304950820996
0.0284550526637639
0.0251718456411621
0.0229646348956871
0.021829119831769
0.0218959586760987
0.022098927007334
0.0216154547898021
0.0212137032701895
0.0210647646680122
0.0210755455143361
0.0211536892890525
0.0212899654301723
0.0217540751923263
0.0227007279761571
0.0246296345290884
0.0270637085953903
0.0288383703947453
0.0288994115981947
0.0273262777222318
0.0258475296172321
0.0251600861603868
0.0249324650204094
0.0245559491670626
0.0240259102689617
0.0230856398381441
0.0224795983497721
0.0223435746800062
0.0221661169326431
0.0221937343001836
0.0220173064670849
0.0215991908851151
0.0214988961493746
0.0215946446737479
0.0217461871544187
0.0217465203626587
0.0216349508753808
0.0212436723601856
0.0208469314867572
0.0207648671408821
0.0205106788303848
0.0207238124529211
0.0209148281077263
0.0205506255756942
0.0203116159507134
0.0200695688652341
0.0204686239926382
0.020887628368925
0.0207866263454837
0.0203687328071144
0.020256737324575
0.0208157841352269
0.0213624293266906
0.0211696825892639
0.020665913977082
0.0203208929739923
0.0198738386424737
0.0198201563577229
0.0206977358481591
0.0212782164300311
0.0197427642116219
0.019563432692361
0.020356255221171
0.0197791162953792
0.0200076054747547
0.0202228036428708
0.0199026826752559
0.0203366073178959
0.0215277952616405
0.0223551815554876
0.0220580774239761
0.0212014960294611
0.0205307855944083
0.0208663094207329
0.0218228028531266
0.0213670386143313
0.021341013895071
0.0229669644378451
0.0231998256717398
0.0223589520780704
0.0221308428446677
0.021744156525774
0.0210071727646221
0.0209979150700637
0.0220685325530725
0.0230922138611639
0.0229740653453537
0.0227873674224513
0.0224987906811203
0.021006932750953
0.0196583856906902
0.0216449755769004
0.0241539096898603
0.0210849005173045
0.0201143239115748
0.0211201820049542
0.0211676630467868
0.0224013223136242
0.0250215340799559
0.0269030201915409
0.025365813458651
0.0241072080162103
0.0259368151486074
