1798
3999.43349933624
650.420452594757
1
2
4
0.034718918797723
0.0342805134137914
0.0348629222881956
0.0355988863928779
0.0355989095124965
0.0353914950412761
0.0353268678727219
0.0350674271620658
0.0349136447588809
0.0351425763686768
0.0351767696986793
0.0352592574549138
0.0354886067201738
0.0355371846571599
0.0353575346219437
0.035055983296295
0.0348422730887067
0.0347193783859017
0.0345906101077411
0.0350182022503586
0.0354535975984579
0.0355358638607392
0.0353586883939739
0.0350965890827214
0.0352932968866479
0.0353824541728497
0.0351185619734576
0.0348869724081298
0.0349372771967706
0.0356023526196896
0.0355353446334328
0.0347444273115511
0.0346399774804496
0.0344072944514505
0.0343287934573373
0.0351091158112396
0.0353286860161791
0.0348713784973363
0.0344206397805709
0.0342152371641758
0.0343229470936068
0.0342049314163495
0.0341524365836758
0.0350047650572111
0.0357198473004818
0.0352993350329479
0.034622077281305
0.0341318739016016
0.0338586002386159
0.0349023409136603
0.0361744895586372
0.0359483197260734
0.0354892223516233
0.0355498931204387
0.0350156327160331
0.0342464483550277
0.0339837229097287
0.0338776525088718
0.033657930849628
0.033797225079131
0.0347124051866828
0.0348762814377666
0.0344103894680487
0.0345805919960224
0.0344563038784905
0.0340250522958179
0.0341089737461711
0.0348338266762471
0.0352926833973148
0.0351568063306076
0.0347696261948755
0.0348746513916497
0.0347527251115975
0.0339244401267979
0.0331226605954247
0.0330686338487905
0.0341115502954829
0.0363685491675667
0.0372152844761112
0.0351159443268486
0.0335445318819195
0.0329636220742676
0.0333276803830895
0.0338152345273009
0.033884455749454
0.0350158510480944
0.0362563807986056
0.0358564372929078
0.0348356985694315
0.033907154662902
0.0332549684537965
0.0333300646298256
0.0333715156900838
0.0334941892817088
0.0349197131405941
0.0358863308273641
0.0351443519396353
0.0350993700152779
0.0355371002186176
0.0348488606300887
0.0337768451521228
0.0332925526497655
0.0339149742369022
0.0344173090424888
0.0343852414892159
0.0351043273712041
0.0354428099656048
0.0350265666139283
0.0346050644031103
0.0333515594019325
0.0328444574305144
0.0334873101884687
0.0334886528707926
0.0338307658988582
0.0344578494961685
0.0341010255290392
0.0341710810633273
0.0350840009230178
0.0351966039712529
0.0343996197000917
0.0334192096574058
0.0331594452317517
0.0340539758764625
0.0345978720455409
0.0343417592563821
0.034111964201893
0.0337890407549368
0.0338902507022893
0.0341159562569091
0.0341691619906398
0.0342740857270504
0.0348054503213219
0.0358992283075683
0.0360424748371506
0.0349699239666289
0.0347321618027322
0.0356506436453184
0.0339633523211517
0.0320853803974335
0.0321679426171755
0.0331836297892629
0.033912454241648
0.0333666835779538
0.0333065002424968
0.0331238304321255
0.0328328509512556
0.0331880196541636
0.0335417378280221
0.0331341856577898
0.0331098129802907
0.0334235859249978
0.0333311117109314
0.0339596598967314
0.0350292283751764
0.0355850681385943
0.0355005790313033
0.0342902428223179
0.0334338569273265
0.0340426383968798
0.0348042401192428
0.0349787841840498
0.0343538483543644
0.0344406851733064
0.0349367385743258
0.0350885032481392
0.0361075019748552
0.0371041985051769
0.0360472058414411
0.0346448019363482
0.0336630484431593
0.0334492563205571
0.0344675325677867
0.0356326898151862
0.0366053735036254
0.0356772940877287
0.0349722589272169
0.0351559583143971
0.034601832740928
0.0335343332078235
0.0330854911149871
0.0336908142632776
0.0347733378135006
0.0351753670680241
0.0353124880823797
0.0361323231066695
0.0365633677905477
0.0365221712237158
0.0374620025747644
0.0380590383754329
0.0367839442013122
0.0351894939841166
0.0349486297891783
0.0348322903115815
0.0349901907841633
0.0357613687615033
0.036540612411128
0.0364122720350236
0.0365434000100762
0.0381819474100136
0.0384957888900946
0.0371458988173843
0.0364498197870151
0.0366968346316776
0.037250863546156
0.0369240957562779
0.0366679798061127
0.0366128228993671
0.0359708000907323
0.0352479526412492
0.035937026324969
0.0362258936391262
0.0349669026452339
0.0347746506637831
0.0356895174326558
0.035858796395798
0.0365070853691163
0.0377415175946007
0.0369441181586706
0.0360776197901799
0.0360921074932759
0.0363629272477563
0.0366668239940217
0.0364543187460236
0.0356090187932258
0.0351511233152894
0.0349964180139669
0.0351408449928999
0.0355969266344525
0.035384776372003
0.0357957308845019
0.0368267460752943
0.0380261925451894
0.0376466056832208
0.0371678150270155
0.0361078178488038
0.0348341869759113
0.0348610580623287
0.0352121188964876
0.0349639228599068
0.0344824843128446
0.0343777750589969
0.0343930259455244
0.0347653032355366
0.0352408388334769
0.0349774795447954
0.0342354713928586
0.0349599166448346
0.0363570045204203
0.0357014178903775
0.0342752475285277
0.034692797578912
0.0356887720880114
0.0348826243253902
0.0334674042313577
0.0332358285962326
0.03389735663444
0.0350476759369666
0.0350859288599622
0.0343711174032983
0.0340242801632742
0.0337979477472516
0.0341882643229098
0.0342746863405864
0.033972955368581
0.0340031427326959
0.0340539993289271
0.0334871956332589
0.0334686275730233
0.0337865230083624
0.0342540301723514
0.0345869590531127
0.0350097078807511
0.0343679389706977
0.0338992449493367
0.0341094295276136
0.0344160841934344
0.0354534078499839
0.035164174307336
0.0340956888703111
0.0336007807909307
0.0338088138135808
0.0341845998059514
0.034195272825059
0.0346592021730254
0.0346752337719934
0.0344044581890411
0.0345767030182935
0.0336750331793706
0.0339891734231794
0.0348322666954041
0.0342744504097705
0.0339460458795145
0.0335778113620319
0.0336666841603191
0.0340903747426013
0.0348447631074407
0.0355822708640359
0.0351094693172744
0.0347063670362874
0.0356033450396648
0.0362801460018434
0.035580411698054
0.0343899551142101
0.0338538247414252
0.0344884081084497
0.0356075630268839
0.0362311583250299
0.0352935384476068
0.0343652441315836
0.034715737779833
0.0344534992476183
0.034369294311647
0.0355767652133526
0.0359796374820879
0.0357421377226171
0.0356971840305037
0.0347751434264903
0.0337705834510314
0.034226659920099
0.0351481179085762
0.0348580198316391
0.0347470260896105
0.034612897193755
0.0345946143082974
0.0349670210110985
0.0353518774974276
0.0355585974951802
0.0356552486282434
0.0352742849239101
0.0348342622222148
0.034518361538764
0.0350232936658063
0.0348541561471095
0.0345657400469538
0.0351587471603751
0.0348004576110725
0.0346409198618809
0.0355957404173513
0.0350414969987625
0.0343180681380455
0.0354440871240166
0.0357298926176002
0.0352029668706116
0.0357295739371141
0.0356060650137311
0.0351183890514866
0.034490016284102
0.0339957870430939
0.0346677601955413
0.0352559261358621
0.0348816941422067
0.0348084269442735
0.034961163699764
0.0351668746813399
0.0353269535776432
0.0344795006095046
0.0347057064746359
0.0349584024502822
0.0343922926741359
0.0341908335444968
0.0345126511186582
0.0350576177098594
0.0349182247115275
0.0351625988953233
0.0352426129420364
0.0354155072844436
0.0360296767492728
0.0352699598112481
0.0349714409368271
0.0349578705333545
0.0351144721551088
0.0348819904315872
0.0345488012535357
0.0349499534538253
0.0350367157081481
0.0351587849426557
0.035545750471793
0.0352601605294172
0.0348034183276588
0.0343537677537211
0.0341137235582853
0.0345234414864154
0.0348305019290656
0.0344680875667238
0.0348447515982883
0.0352393149273484
0.0350843158766353
0.0352088358301855
0.0358056300387443
0.0360467874285661
0.0354520011446006
0.0347572824519029
0.0342659049214905
0.0345805722139944
0.0353669878115128
0.0352677889755787
0.0347904808763774
0.0344161884584946
0.034333076288015
0.0349046426852066
0.0350504284861735
0.0350992577764613
0.0349555078152827
0.0345687635977395
0.0343644935253539
0.0342505113717647
0.0342602599077237
0.0342665851267029
0.0344901416763458
0.0349232391704169
0.0345090305080327
0.034213406599493
0.0344029017970348
0.0347769337828234
0.0346902360291283
0.0343458681063573
0.0343268580912794
0.0337727092278329
0.0332510397973595
0.0339882408968365
0.0347595933247355
0.0344457228197729
0.0338461836306317
0.0336094986261042
0.0335964127813848
0.0339179717007471
0.0343235926411546
0.0340713169483685
0.033770044260395
0.033844532367885
0.0335616351218751
0.0338582055272074
0.0342442313073381
0.0339405148521424
0.0336394986409578
0.0335246548891504
0.0334981188128394
0.0335978092424058
0.0339025282904307
0.0341037889235098
0.033811633252993
0.0337554669511906
0.0336808855842753
0.0332806535850709
0.0331693912723794
0.0337772290550932
0.0342509288893742
0.0339850524131951
0.0336737602519182
0.0335418435977185
0.0338080747822595
0.0338666025273957
0.033826367343822
0.033706444818915
0.033497668607283
0.0334426818541768
0.0336946246540142
0.0336317575672201
0.0331396376090519
0.0333863707229043
0.0340422192670262
0.0339722325742546
0.0336067527882122
0.0330262622883367
0.0325984014164715
0.0329716158333741
0.0333273595319209
0.0332764180150863
0.0331460565235853
0.0328295818588674
0.0331134923417354
0.0334021551822505
0.0331388714081862
0.0330528416618577
0.0328504458793718
0.0328884488764925
0.0335263408503301
0.0340863368037596
0.0345500099628473
0.0350988204721753
0.0352991785400178
0.0357553608662786
0.0364881583354228
0.0364825647431382
0.0361502683480776
0.0354969920053348
0.0352350732118355
0.0358610856927873
0.0368482021040457
0.0383973089332902
0.0402741142184748
0.0426213415388815
0.0445784624784651
0.0451368911694821
0.0447099907422267
0.0441351211458539
0.0432538337998248
0.0424970878330908
0.0422447622158936
0.0423651644191603
0.0429595216124229
0.0442162790622407
0.0463669205066768
0.0490468904611268
0.0510420638177555
0.052003239408817
0.0513808287113175
0.0502024911231141
0.0489002692339586
0.0471099113143
0.0453081432498496
0.0438283591940449
0.0429821692724171
0.0425341603942077
0.0422101649938007
0.0425672837237731
0.0434027073099021
0.0448342213442218
0.0473387924499826
0.0508495840981141
0.0558253442497811
0.0618120533219739
0.0674217761865374
0.0712340351031397
0.072024673521013
0.0700377542434488
0.0659331802956515
0.060943430078892
0.0568448963032222
0.0534628529206833
0.0504244069893455
0.0482471895433828
0.0466011865595888
0.0454913312722705
0.0456244693050008
0.0462277940745158
0.0459086507636001
0.0450230666374401
0.0442071492029878
0.0431424899624865
0.0417913429655257
0.0405661164904485
0.0398959156305352
0.0392370706224404
0.0387648349710655
0.0385401749205307
0.0381722332111959
0.0377581577886693
0.0375738316612121
0.0375355176668532
0.0375522917412822
0.0375334811547128
0.03749669581272
0.0373068588510872
0.0374975753904133
0.0381846374509699
0.0386736536682667
0.0389637045657061
0.0391923645894798
0.0395345377292043
0.0404021702961518
0.0415726847627901
0.0421073592375035
0.0428912733445204
0.0441541381067929
0.0450314333307536
0.046239861798361
0.0484443626200119
0.0507291633278561
0.0531695146216909
0.0562429395336578
0.0595663651353022
0.0633484655588546
0.0673103459461972
0.0713782040263567
0.0756073606805001
0.0792352243669252
0.0824130107885745
0.0851507968400674
0.0869423419209066
0.0881860845307229
0.0887919329289737
0.0879546848556749
0.0860582205189474
0.0840304736414809
0.0820394296138858
0.0799345502463362
0.0778611543306785
0.0757933050253053
0.0733751050946456
0.0704633743413059
0.0676073885517781
0.0654206424401085
0.0632402753106009
0.0611960708466871
0.0598914096141704
0.0588857292477542
0.0576831639018838
0.056739258462233
0.056058032354657
0.0552855125670466
0.0541768700729157
0.0531653832453982
0.0524373943478326
0.0518634677584538
0.0512013886308715
0.0506832396857974
0.0505558859853739
0.0502314060678182
0.0501460162678846
0.0505525243167031
0.0511620308871258
0.0523515654032926
0.0542286241036711
0.0562011575673102
0.0584449399203826
0.0609367882062579
0.0627659369270747
0.0631116568648919
0.0622860630112262
0.0609759962873281
0.0592854607486097
0.0569242697158034
0.0541554008290562
0.0520140953167944
0.0501837253247785
0.0483038823876428
0.046722388337843
0.0455204617140356
0.0447374730926795
0.0442194834671558
0.0434517352592002
0.0426192152013035
0.0424273550035379
0.0423322004665147
0.0418325331415383
0.0416416353131961
0.0415260871758106
0.0410054317075568
0.0407668476925572
0.0407226468867979
0.0404606853183696
0.0402991199169729
0.0403305644012694
0.0403713185111109
0.0403991552517498
0.0401493970227318
0.0395501962231655
0.0393809334163764
0.0395923295472593
0.0396176693698069
0.039465663514746
0.039280276546666
0.0392076216261624
0.0391363966728326
0.0389664331204426
0.0388344704180766
0.0388919487256207
0.0388483457316542
0.038878270215089
0.0389993617289551
0.0388250152080561
0.0386926993094209
0.0386797735987585
0.0386054720783835
0.0384757443745445
0.0381551811453187
0.0378776261046513
0.0378407849401967
0.0378394673943166
0.0377342952765625
0.0376375761178385
0.0376284944378934
0.03748222571569
0.0375034903540765
0.0377996199613939
0.0376737170069481
0.0374810411349912
0.0377100787925841
0.0377594078725782
0.0373693769933565
0.0370872469280063
0.0373697180674885
0.0374884431916317
0.0373862019508143
0.0373314718648083
0.0372528000470728
0.0373179667801325
0.0373073931670973
0.0373127066461982
0.0374700185477563
0.037512789794862
0.0372527774944491
0.0369985417148607
0.0369268899552874
0.0369159712606192
0.0370405493851678
0.037045514596409
0.0371339395719181
0.0374567795238323
0.0373426189548016
0.0370731588812163
0.0370670221357605
0.0371298964100576
0.0371223701895745
0.0369403199015312
0.0369093897917537
0.0369950506175552
0.0369313187671751
0.0369143868150935
0.0370185483667134
0.0368677584013567
0.036640367844902
0.0367090033054005
0.0369152416939126
0.0367864467598141
0.0365602240674414
0.0366049348571019
0.0368121400664221
0.0370406676225053
0.0372255022513878
0.0374778629790144
0.0375326997343093
0.0371754015883801
0.0369529310677098
0.0368661588596517
0.0368755339259558
0.0370583076056094
0.0369627391406114
0.0369709119422901
0.0372168868705272
0.037188233672655
0.0367963189782786
0.0364185055719812
0.0365470073864682
0.0369330046795372
0.0368297655208767
0.0365618003695223
0.0368755776132923
0.0368952153998362
0.0362505647718366
0.0359794186451585
0.0360965109317847
0.0360581071102326
0.035900119907024
0.0357192228394229
0.0357105819714688
0.0361509580594481
0.0362127703508094
0.0356570251761738
0.0354551110547099
0.0353958944723875
0.0353876432690101
0.0353758387575034
0.0351260625704386
0.0350976908153136
0.0350205140593183
0.0344736444901338
0.0344005777689745
0.0348374003158796
0.0346354538898762
0.03430054549294
0.0347235090022384
0.0346995491829085
0.0344770765331941
0.0346168522986051
0.03480574418256
0.0351197739090624
0.0350004542675509
0.0346708535884263
0.0344638500286335
0.0339932239376852
0.0341062838530469
0.0343828429471336
0.0338478361820719
0.0333112992173551
0.033494820919892
0.0338309376852085
0.0338300413659518
0.0340945356935918
0.0341668723419446
0.0339305746726437
0.0341521592623582
0.0339467210590012
0.0331598074543657
0.0334288344830007
0.0339897122978722
0.0335886447282557
0.0336666928842903
0.0342654053704737
0.0339760163276454
0.0334301683334499
0.0335418645200603
0.0335682034599255
0.0336870756942326
0.0339392821051634
0.0338748201376079
0.0336540401330887
0.0339493262166383
0.0341438832699387
0.03362691431776
0.0333850330417518
0.033739199350213
0.033970945780767
0.0340607082379436
0.0338115834920162
0.0334583460111797
0.0333233697759399
0.0329274168794968
0.0328658222964028
0.0334797550021092
0.0340491866120839
0.0342678531106682
0.034062452961497
0.033493900927359
0.0330636285149063
0.0330371195812285
0.0333735402258805
0.0335269151542321
0.033518624768743
0.0335678648528693
0.0334019837984658
0.0331264806480872
0.032942312983897
0.0327879410868308
0.0328514818533088
0.0332645174751202
0.0336667096304344
0.0336199983113097
0.0335637029434976
0.033312412412232
0.0328840160000894
0.0329951909741816
0.0338685495395816
0.0343827304260677
0.0338080545326534
0.0330186406773693
0.0325247128683933
0.032411403417322
0.0324226682541317
0.0322769982936617
0.0324765444781538
0.0325535591249284
0.0326447723895532
0.0329273274601525
0.0329681277529345
0.032943875934757
0.032785053408383
0.0327150953791055
0.0328997999456842
0.0325838361340453
0.0324840707182121
0.0330508743737795
0.0331338588551805
0.0329338259456645
0.0327197717825495
0.0324595963062569
0.0323794387947911
0.0327586868072498
0.0327076017050807
0.032454440794193
0.0323319299066277
0.0325235703770051
0.032690779500749
0.0326218780709689
0.0327410292774722
0.0329010781001623
0.0332713370640516
0.0331423017907299
0.0327621606759805
0.0328434848698258
0.0334101775962848
0.0340860156764184
0.0346728585002265
0.0348831025734434
0.0345504490154238
0.0342066266933275
0.0336294204071383
0.0333232679415603
0.0330607623377139
0.0326627307384969
0.0328098238081296
0.0328828428645637
0.0323645164390667
0.0314921036219877
0.031098607738155
0.032293118318158
0.0336440263036384
0.0343815125557661
0.0345698049352832
0.0343927966468573
0.0339438670410179
0.0337493605690337
0.0336263894738182
0.0339717058378693
0.0342640396170531
0.0336040323077932
0.032963793151383
0.0333078867023937
0.0340016601284975
0.0342150288971461
0.0340492257021443
0.0338842683781978
0.0334452453744327
0.0332932735039715
0.0335656943566716
0.0335615567689119
0.0331861734110258
0.0329420817242742
0.0328857103181942
0.0330368728690747
0.0332153976589989
0.0335349442076356
0.0331041584897587
0.0327844362757816
0.0326011144302764
0.0324931365023992
0.0329409334208948
0.033282731359739
0.0334380866887156
0.0336119487928477
0.0330381160304128
0.0326044202499068
0.0326153663293339
0.0322961229269078
0.0319155467793775
0.0317688274165698
0.0317948050451699
0.0317984363236482
0.0305074045330232
0.0297123804930105
0.0302820466037158
0.0308240627628805
0.0305939215247187
0.0307339846914418
0.0306481596840948
0.0302622662949628
0.0297473864449153
0.0301080024721637
0.0297072679025774
0.0293065980294085
0.0297893771155845
0.0299502273559019
0.030124372538242
0.0290821853000769
0.0279020058498531
0.0277291317752704
0.0280362570554259
0.0281967599612644
0.0284311679319958
0.0290251721098383
0.0285372072331272
0.0275425966315542
0.0273809223224392
0.0269793433805887
0.0267360385970987
0.0266602762646949
0.0266541647418697
0.027577390299118
0.027621779208225
0.0265732924297638
0.0251235375230121
0.0255325199240123
0.026449140542118
0.0266686967947049
0.0255104385755268
0.0247677194435242
0.0264712919034145
0.0283892092243176
0.0279513257223363
0.0256819356386809
0.0252305524768678
0.0259907066190515
0.0264790531805918
0.0266062805773381
0.0243782333915861
0.0222737076042045
0.0225302703344861
0.0229792381231701
0.0228539715045717
0.0224372669781668
0.0233800478180951
0.023713476359298
0.0240661915942137
0.0254331918777948
0.0241515004137771
0.0223084348379839
0.0199019850946334
0.0192359975208834
0.0197291680266885
0.0194581637263448
0.0207813026041743
0.0223398434811116
0.023309161319611
0.0238140735133781
0.0243206105994603
0.0245088830719904
0.0245631408729002
0.0250571878315584
0.0245520786506125
0.0241333654419717
0.0244569828914987
0.0253215236384959
0.0254710675991672
0.0253600815870878
0.0253551108567451
0.0257625046107994
0.0270802728315075
0.0276602699922798
0.0276946727241455
0.0288050752717791
0.0284634427972804
0.0277877774859699
0.0276842194162997
0.028031825042928
0.028866505438794
0.0288082086468299
0.0277445180129051
0.0276330872966452
0.0275045845338931
0.0270695357234942
0.0272978037871303
0.0275023408940276
0.0277209762413005
0.0274199140615123
0.0271506601099001
0.02789636502938
0.0285670290146749
0.0287238901289696
0.0279568415514093
0.0277636654125505
0.0282808196570833
0.0275231867217182
0.0271215844336283
0.0279314283536997
0.0283085842159857
0.0272887568787368
0.0263450829868747
0.0263092951840709
0.0259456900468941
0.0259882533371812
0.0265407115220611
0.0269805772694174
0.027125795845537
0.0268308193939328
0.0271884077629129
0.0270427094478416
0.0253579021545317
0.0241578482558494
0.0236802898998939
0.0230299611493937
0.0235790274848462
0.0238204365205085
0.0227273102485798
0.022137417518532
0.0224025134392419
0.0231048605057334
0.022006832886974
0.020926006776298
0.0228422941038553
0.023569268840346
0.0225911837831711
0.0215338389256206
0.0206542343780544
0.0213966577485001
0.021486945252425
0.0209890077015064
0.0201535999462656
0.0200113249998119
0.0210222787307188
0.0219084924307149
0.0222093085814628
0.0220557798454376
0.0227034322734139
0.0226781182952216
0.0222706700067878
0.022150269763961
0.0227662607387439
0.0232320955820105
0.0230561393693068
0.0225366106095774
0.0229919550526372
0.0250631746043524
0.0243906880693118
0.0212970857608511
0.0193552605968854
0.0194289080645427
0.0212687426592609
0.0223284309794615
0.022421411997893
0.0226741680539322
0.0238321025785525
0.0244622382748575
0.0247399208473026
0.0256536919602392
0.0261755465838593
0.0259192628435158
0.0262549230807891
0.025890803243579
0.0265812484395766
0.0285290607099858
0.0293469152293032
0.0302769722948951
0.0308106425132486
0.030574337740415
0.0311202283617889
0.0315212796218478
0.030777461338985
0.02995770971496
0.0302992564743572
0.0308287006850142
0.0295174034626903
0.0287768615668125
0.0291008508734202
0.0290750820757106
0.0289950734140203
0.0287953160522221
0.0289715728963997
0.0295194921353686
0.0289784336650336
0.0284259770800546
0.0286066007765615
0.0294938206096715
0.0293511472472862
0.0288924312780605
0.0290048363119948
0.0291094396055857
0.0290633583285292
0.0292299584286472
0.0297509778036457
0.0300025460408639
0.03031051041853
0.0305031432738265
0.0307880131245025
0.0314136404926501
0.0317150649091577
0.0318040459633099
0.0317761439390142
0.032189379053758
0.0328598526179721
0.0333298988958484
0.0333637038961363
0.0338621367949056
0.0343554047795983
0.0335487503592411
0.0325489103007043
0.0326026351915407
0.0330408094864303
0.0329842067102592
0.0320980842487576
0.0312662744733031
0.0312296081771741
0.0315296607845944
0.0314130750353572
0.0309398541215215
0.0310739890705761
0.0316306744354547
0.030697250395456
0.0293412086304349
0.0292487781585776
0.0296639312805418
0.0296433980482559
0.0295339218101945
0.0304199586145111
0.0311569607700839
0.0309570856000238
0.0307843969800981
0.0306219025404846
0.0306072874164823
0.0308445702714385
0.0313413498487595
0.0318278763152803
0.0320399937056612
0.0324873637888359
0.0330109752200923
0.0332829642221086
0.0336042587408028
0.0340036523168697
0.0345494956605397
0.0352124605610424
0.0354358790016883
0.0348185553853885
0.0342778078453006
0.0346509934772451
0.0348231957694421
0.0336506023880588
0.0324534097405592
0.032070900040008
0.0321155107858735
0.0322157765508145
0.0320825352036656
0.0317424316982546
0.0314000536168824
0.0314752832219607
0.0324282969430119
0.0330072241529953
0.0318756961790438
0.0308849370015531
0.0306604998669071
0.0310802463958418
0.0320602777669352
0.0321459558303578
0.0319996559901711
0.0324829888018186
0.0325800326752532
0.0332892295920927
0.0349219538398447
0.0355767790573009
0.0353722360336346
0.0355595088518581
0.0362016892146983
0.036973246160591
0.0375887917945065
0.0369110283142032
0.0367013259502829
0.0380684787713301
0.0369558937625678
0.0346352380325633
0.0340321892384974
0.0340693712081851
0.034475530979935
0.0347915466297625
0.0350155819732524
0.0361316458080141
0.0373900042725963
0.0359710137496339
0.0335250371658278
0.0322489489261878
0.0321336136276435
0.0327993558251949
0.0337277662448478
0.0335593408557791
0.0332510764323475
0.0346391951846299
0.0344932841559645
0.0329474717958325
0.0325736302294921
0.0313922487016329
0.0311680413766467
0.0320751224148934
0.0328909436943549
0.0342899342814177
0.0357394980276591
0.0342501911377473
0.0325228774121129
0.0324797947698022
0.0337618105029257
0.0349871017697336
0.0343982060093665
0.0343933332758871
0.0348459246474624
0.034287155500477
0.0340041640576206
0.034761647141214
0.0351216269384664
0.0344347793183088
0.0339687386200106
0.0346190963038897
0.037492976697392
0.0386143395887082
0.0339663458420266
0.0326233456167041
0.0339222959984988
0.0340032679185806
0.0328488291914482
0.0324558454228425
0.0328475704360363
0.0338922683627027
0.0350198945050193
0.0337385237059407
0.0319581266151568
0.0319077113958046
0.032699589894855
0.0328401962084408
0.0328664655478487
0.0328593714085502
0.0319805552536319
0.0321369399916451
0.0332107180253577
0.0328072855069719
0.0315515666357665
0.0318519158557284
0.0333486425706524
0.036024836201767
0.0407794357377316
0.0480194968905906
0.0565859408153371
0.0624798483615186
0.0627295279777958
0.0587795541749381
0.053504396484046
0.0487724905572667
0.0450581899725386
0.0425289851539566
0.0414045548321542
0.0420739706437548
0.0442485349384945
0.045545242015253
0.0444323357964065
0.0430516804713269
0.0418797937143922
0.0382601554341501
0.0358197851147563
0.0358946665075154
0.0359016403885041
0.0347405036647695
0.0339991277519163
0.0337877337690079
0.0353088265752484
0.0383293106491904
0.0360107192044058
0.0326445048110738
0.0325866851593808
0.033404461902134
0.0344183688352627
0.0349355019745312
0.0356546408826189
0.0374028497392088
0.0394778965066453
0.0416383396710635
0.0405591605307647
0.0375739844596822
0.037123176106476
0.0374944369793921
0.0358091299962132
0.0344967795284073
0.0343967651201601
0.034403395183403
0.034061017702806
0.0342447979266573
0.0335258926063035
0.0321489710930761
0.0320265770828886
0.0316423897186709
0.0315898304898894
0.0320118037237232
0.0327475364761558
0.0341784933774561
0.0330849229654981
0.0306701356438405
0.0306659992329726
0.0329522753157142
0.0385527388346506
0.0549219968409705
0.0845080143508896
0.110121785594253
0.114889105393283
0.0971894655990083
0.0778221430626714
0.0643263489474489
0.0562424066585874
0.0510685428843952
0.0471592758618505
0.044979777338437
0.0440224746757256
0.0433537815833129
0.042293290872799
0.040244728932558
0.039860232444946
0.0408235361675369
0.0413220026309378
0.0403441409046825
0.0403073249679044
0.0418639455992963
0.0485457441407105
0.0686052939549014
0.0949363750542707
0.114098196267447
0.116950137329543
0.109661895085118
0.0994724174398469
0.0911904013660466
0.0838265031563359
0.0775773612167368
0.0740029243542997
0.0697717505931243
0.0613088300185572
0.0559980807638797
0.0534876818943474
0.0508928753980704
0.0480398712406966
0.0466579820134389
0.0455962689800005
0.0446846861034375
0.0449968160338702
0.0436460756601533
0.0414453887378324
0.0407761429049392
0.0407612512447443
0.0406395887977534
0.0401734750701337
0.0400722020087146
0.0399026157884829
0.0391547366667052
0.0390154240364069
0.0397521982140401
0.0397713401538468
0.0397420754079369
0.0391435945897539
0.0384646225921561
0.0390608685512138
0.0405058179372857
0.041300189208082
0.0416276523629768
0.0426886388110256
0.0437183982488811
0.044575163868933
0.0454947535490282
0.0467172069439826
0.0472158516373601
0.0469456814727094
0.0470347417741536
0.0470296658003214
0.0469676843356632
0.0472393551720564
0.046823247481853
0.0457618546824743
0.04512630003214
0.0447881220447766
0.0445674028552659
0.0443677349738618
0.0441221374414171
0.0439628325875889
0.0438550339040862
0.0435131631697549
0.0431323747971841
0.0429339191350438
0.0425828746915354
0.0418140409059191
0.0413263327497117
0.041569337573437
0.0421816814673526
0.0428072846253396
0.0432994246695656
0.0434574465073938
0.043344350350288
0.0429529496499507
0.0425888976381838
0.0424672492260664
0.0422694907066064
0.0422725379412921
0.0427453257878078
0.0431181200004132
0.0430722841485872
0.0427492622063856
0.0422292280874227
0.0417132167347222
0.0413108200483256
0.0408368437647628
0.0403496616905298
0.0399596213709039
0.0397147918519577
0.0395299928891676
0.0394061517542771
0.0392986734665836
0.0390632710942816
0.0388749698793495
0.0387253972136834
0.0387244735548225
0.0389004625544529
0.0390641415030915
0.0392022695917114
0.039244761624283
0.0391945933228276
0.0390388995018676
0.0387776605812336
0.0385049593059924
0.0381460408064523
0.0376543478869366
0.0372128989590826
0.0368481308956205
0.0366380679386247
0.0365440943108224
0.0364826424176292
0.0364504703112431
0.0364157395533029
0.0364750555338443
0.0364851464506833
0.0364701375798158
0.036452135850758
0.0362058850986614
0.0360446012153314
0.0359689848430509
0.0358302330600363
0.0357326850142628
0.0357155537968125
0.035718599142703
0.0357377529861462
0.0356685049375021
0.035554263072437
0.0354562146506144
0.0355737395741136
0.0357014951925609
0.0357031270491819
0.0359268571445537
0.0361255111263682
0.0362128117657139
0.0364878567845921
0.0370204890956643
0.037701703934729
0.0383789451554942
0.0390036744562243
0.0396266181065603
0.0403415197748016
0.0408301002469328
0.0411889491190304
0.0415857081569306
0.041897804743585
0.0422067379658347
0.042938821507728
0.0443469476434427
0.0464116945870181
0.0483064387414823
0.0489162153543031
0.0479035562139118
0.0462241703015407
0.0449006917307294
0.044221593223275
0.0439044643861592
0.0437307743277705
0.0436379821972729
0.0436035055116987
0.0438558794518676
0.0443709844007949
0.0456393335266624
0.047916586574909
0.0503708135016775
0.0517627312034078
0.0512209210969823
0.0494618490147978
0.0477672218989685
0.0466036950393405
0.0459666295910411
0.0456724600310913
0.0454376699203777
0.0451550213901504
0.0451280810515648
0.0453048414459506
0.0454664012279349
0.0457554512932368
0.0462141508527998
0.0468314029522275
0.0474230684782777
0.0481407181463701
0.0491276370849314
0.0501666663859754
0.0512591632799789
0.0526284289180728
0.0539822554410906
0.0549698819781186
0.0555475095615086
0.0559866497364413
0.0564128511589466
0.056644034946076
0.056926897003686
0.0573423250621039
0.057848521104221
0.058581061701579
0.0592693695899215
0.0598506951563956
0.0603555479317903
0.0608626559167482
0.0614145570648423
0.0620255033763845
0.0628129709092213
0.0639182578355281
0.0650920173427217
0.066151151647588
0.0673337601348597
0.0691163867958585
0.071334385708606
0.0735672457974403
0.0757793452207681
0.0773606482388246
0.0779343306810628
0.0777025683422955
0.0771723716877219
0.0767472643666934
0.0762833145538173
0.0761253214426707
0.0761505469709564
0.0762340128072136
0.076439788576686
0.0767539031884436
0.0772145336162479
0.0776070766507792
0.0780043420775636
0.0785287821981004
0.0791244000262119
0.0802911708429929
0.0825649764214997
0.0870728725041321
0.0941409039511267
0.101982385783805
0.10804447067988
0.110086768367116
0.107442473552793
0.102797632155615
0.09856145238458
0.0952507009355677
0.0927647569232059
0.090816720175439
0.0890675858499579
0.0875109112497338
0.0861812698139037
0.0851713174075128
0.0846697124166985
0.0848010211516272
0.0845184653515315
0.0828022047320581
0.0801329795233856
0.07759399979081
0.0756426950548575
0.0742058316017881
0.0729670431074635
0.0720017095836648
0.0712885272766579
0.0707414764992422
0.0702631247446343
0.069845117659779
0.0691687012327838
0.0681513739905552
0.0666127005141326
0.0648225844717319
0.0631887652441573
0.0620575308013029
0.0616219387049599
0.0616338910865896
0.0617276082880962
0.0615534192228622
0.0605876450165774
0.0588411798415848
0.056748186634711
0.0549150104988255
0.0536685839262685
0.0528774464643904
0.0524567440900846
0.0520299364964414
0.0520520553221874
0.0522522075980819
0.0523390349465804
0.0521652440517827
0.0517885877459212
0.0509777755942007
0.0496116040442749
0.0485600536596402
0.0478532336833198
0.0472740407371851
0.046931564989234
0.0465556283257571
0.0460728735164853
0.0457174936897047
0.0456437780625112
0.0460532672317677
0.0472245201773143
0.0490792163302258
0.051312281254729
0.0541823774460802
0.0575211705097772
0.0603813254489667
0.0615167830782294
0.0603920072214172
0.0573861473178519
0.053663619427545
0.0497501302022913
0.0464779084030795
0.0440550965767671
0.0423338670603886
0.04112732286992
0.0400868807875723
0.039293930241723
0.0388536924149403
0.0385717829283739
0.0382335203923508
0.0380512899013981
0.0382830441859705
0.0383021146949726
0.037807939208948
0.0370880305538782
0.0363730306583873
0.0356736475272943
0.034858184505345
0.0340905981599802
0.0338977973852207
0.0335676512561869
0.0326778582618929
0.0321044987411223
0.0322363000683765
0.032734506771609
0.032841970286249
0.0331382400708955
0.0342945390349044
0.0359446019868971
0.0372088532637358
0.0378884746025088
0.037936118100679
0.0375843188892169
0.0369292283108843
0.035450638077346
0.0341064193609921
0.0331241123594105
0.032029300220028
0.0311257724893075
0.0307414607698513
0.0307352365028212
0.0303612586686463
0.0300806070581995
0.0297702475298488
0.029328634216655
0.0291262685791539
0.0290304009135094
0.0292209346580544
0.0299641812288645
0.0307609696603049
0.0313688104320477
0.0317772062400453
0.0323750401731112
0.0333235399341889
0.0337118422584663
0.0334348095868199
0.0334022020474287
0.0341358447204271
0.0353413030317205
0.0362050675589767
0.0370404305872854
0.038654638765485
0.0409861948823432
0.0436283797767447
0.0463487303102686
0.0495703562634762
0.0546875635006787
0.0609247233172851
0.0680241111218007
0.0765670370331803
0.085223917389202
0.0942519506599678
0.103475970231231
0.112761203501188
0.122685166304557
0.132498733697127
0.140039987755422
0.143230313465625
0.143519932270416
0.143488265939845
0.143311406463262
0.141359353325009
0.135427148981193
0.124512250951559
0.110622274260876
0.0965953252282222
0.0838870007800435
0.073552680344847
0.0646367851314606
0.0561362334894257
0.0487766459017816
0.0431149472326107
0.038908881527463
0.0367442645448022
0.0363548742789367
0.0353478981871426
0.0335647241749043
0.0328846446270195
0.0338514811411924
0.0360537848726741
0.0395142954674586
0.0477605126193616
0.0641983133938147
0.0912898065914329
0.132715834479239
0.187869108383147
0.256518070458272
0.34101160303082
0.427887940759817
0.462983324147361
0.401907302025306
0.300183387313493
0.222522234122811
0.175025455726425
0.14445450511921
0.125509107138078
0.113267373127259
0.103770630205108
0.095990329483202
0.0903782492078191
0.0883205956709598
0.0846654120580052
0.0790604666665921
0.0764748524469132
0.0716228681329842
0.0694473330056072
0.0685233970467874
0.0649990010955083
0.0629244870522599
0.062718772542617
0.0591849920242378
0.0550915721189919
0.0559194821955756
0.0564496523394044
