1798
3999.43349933624
650.420452594757
1
2
4
0.00236800379330048
0.00173540790075829
0.00100449132995118
0.000894239949084381
0.00179760731084101
0.0016517364209155
0.00120759979012935
0.00133483029800481
0.00117391545141069
0.00187655276267162
0.0027368679825224
0.00235325039290087
0.00203789935044249
0.00162176497022146
0.0010665879474363
0.00113470018409005
0.00143248133868275
0.00134644511497004
0.0016912793751481
0.00188058115925106
0.00175463547361887
0.00150509333482155
0.00172744715898706
0.00167559854553549
0.00138353454656409
0.00165971426127504
0.00196515515174542
0.00154400030518
0.0014354502491976
0.00175078110277999
0.00244626663544629
0.00200924376851139
0.00107116184292566
0.00136486268920715
0.0024924530445453
0.00293590040471989
0.00248423751824482
0.00175564437350521
0.00189760159650483
0.00196974431441339
0.00181963080272807
0.00217155889745808
0.00280201865958211
0.00218063533966392
0.00143248557927344
0.00219473449964537
0.00232717913072476
0.00189494655834718
0.0017113469561698
0.00245419350049912
0.00351400745528083
0.00380695678013447
0.00362506641083035
0.00295030941312474
0.00245040752656193
0.00221477424858301
0.00268559206365647
0.00296286505542688
0.00234793617197902
0.00252807055031692
0.00303608300554363
0.00300782296128566
0.00296997914803822
0.00264888210549556
0.00233812881551451
0.0023080577692798
0.00287598018985318
0.00348287434210587
0.00386018509407539
0.00300045844492288
0.00333675080534665
0.00296677015729983
0.00256538208949513
0.00265594601994912
0.00232728031027912
0.00230473798952356
0.00319880520818823
0.0040775332461959
0.00389319257655436
0.00280752493203447
0.00196813268741402
0.00213268672428451
0.0025273082131091
0.00263280554084093
0.0031011255437195
0.0031861582687235
0.00318223597416094
0.00291357721565036
0.00242309705181978
0.00221943386548827
0.00240940144243806
0.00313249288502215
0.00237283196567365
0.0014746925505614
0.00245661345174807
0.00322557080016727
0.00325629010048714
0.00331863359213609
0.00285226135347945
0.00232457228369059
0.00183202026342826
0.0025832864123604
0.00317715268535239
0.00224137019446464
0.00223470986128857
0.00290794301908202
0.00264262686168945
0.00243868343105735
0.0023980557400973
0.00244336427583064
0.00207330672328357
0.00197526923406367
0.00177351877240689
0.00182967421921499
0.00202731952919921
0.0018021860494493
0.00159584275551675
0.00159078524042254
0.00198285148884148
0.00181070203134026
0.00199892066904084
0.00258252186239206
0.00195511458566596
0.00157775881788075
0.00190125189720262
0.00157621438795011
0.00142573530854738
0.00206343030780244
0.00236470138391694
0.00161342999148167
0.00177020307052538
0.00351811562186853
0.00418073741382813
0.00394736368512328
0.00340141705570541
0.00400859589070936
0.00290786397011055
0.0020056638035477
0.00168732582301117
0.00263508409699249
0.00330133387146472
0.00349073254821763
0.00331768391411254
0.0022995075630152
0.00187821037516957
0.00200498707933492
0.00204550977340361
0.00224767587243084
0.00201670347573581
0.00197790794075892
0.00198270296553608
0.00180637431541132
0.00229086428000399
0.00320501427733548
0.00330695634640022
0.00244041627557723
0.0015403588510727
0.00188845427447365
0.00212953948602119
0.00191921500652965
0.00170705154892053
0.00187340371089814
0.00192488384950898
0.00185122596215774
0.00235871752102368
0.0035635123421994
0.00375831612433091
0.00259201281295606
0.00206718520765023
0.00220522637457921
0.00186978233273678
0.00199041750742815
0.00300380775282338
0.00303217844985597
0.00241693228450681
0.00217182208954437
0.0028562785469179
0.00234060038691999
0.00191606771370702
0.00211867446015561
0.00171644863645541
0.00132468446249525
0.00204625894970472
0.00278983705183812
0.00256282858726042
0.00252214762180138
0.00328058493242138
0.00419989318958938
0.00356691831570928
0.00222160683847884
0.00225624251562262
0.00272677778782613
0.00280644013714284
0.00271061446976307
0.00241591809883376
0.00210002820228341
0.00233009636640981
0.00292373380860548
0.00357266510748336
0.00393627481981717
0.00380973590787731
0.00324741179474123
0.00239775276964086
0.00265264586772789
0.00254211658226422
0.00260462991923917
0.00328300585034863
0.0036246285071328
0.00345414126018782
0.00332024550859855
0.00312956079673861
0.00300522911131342
0.00278667965439417
0.00275713523210731
0.00285118195521854
0.00313171162909084
0.00322180622417728
0.00265882670718106
0.00177103511124465
0.00179136631546376
0.00212850469654599
0.0030244196170086
0.0029088282829171
0.00148873072674374
0.000676696943084482
0.000775014635542923
0.000697174609529783
0.000957760204500559
0.00134795634538998
0.00168495435893912
0.00176583793232581
0.00226577407422373
0.00285282724124588
0.00167170541744944
0.000266868389056777
0.000761243302009845
0.000826171233201622
0.000406598957215434
0.000653740466777172
0.000960677949589061
0.00192379067874296
0.00238972792478941
0.00194062859320805
0.00174797758593983
0.000897978761458062
0.000266395805530834
0.000529984020450049
0.000672987712240234
0.00107556783090011
0.0020507167275911
0.00193908988983822
0.000589212139399504
0.00018989409175289
0.000850135965139334
0.00071118347788179
0.000873775618392478
0.00133015935463763
0.000662856699548469
-0.000635086222954241
-0.000353240511764818
0.000997514579697663
0.001608325902641
0.000872542752747773
-5.77683469087034E-05
-0.000520812137558279
0.000367344804640096
0.00143394447584199
0.000676196021135085
0.000360757271358003
0.000781833935537516
0.000296789406407764
0.000278614868544822
0.000571807951814852
0.00093394116001446
0.000691273316674476
-0.00011496993042848
0.000406521910039378
0.00150002166049405
0.000721072908004498
0.000323927414589212
0.000845947191436056
0.000874669963578431
0.000763607247028621
0.00101002868932384
0.000867121879352347
0.000144813220792141
-0.000190303121385908
0.000934904936745066
0.00161281376624966
0.000820131353241765
0.000644972529232185
0.000551328685810936
2.39483121745463E-05
0.000476521495036925
0.000904069632358401
0.00106469142440989
0.000912733771589445
0.000493859389925111
0.000352296754647745
0.000177621596604922
0.000175937301378653
0.000546130633620789
0.000399413150461262
0.000482267869903241
0.000478665590947344
-0.000134523567288887
5.92168913945673E-05
0.00104471634381802
0.00102171667437278
0.000396341204313477
0.000658779118457713
0.00087329376765439
0.000263150419485521
0.000683309546877291
0.00136404156608532
0.00136218572639528
0.000980970444566089
0.000689614769931532
0.000930574070269595
0.00140401386478649
0.00112038098406424
0.00104508220524713
0.00115094720249591
0.000988719072121301
0.000808234846753046
0.000868859094067738
0.00105712987564851
0.000769452310614658
0.000982770227591651
0.00175681624155989
0.00147938881594732
0.000834277674360165
0.000491028909540014
0.00104522088206942
0.00174945438675349
0.00159499287465713
0.000898148895003085
0.000340185602755582
0.000132541661729932
0.00054906265205265
0.00135269443375116
0.00164897459738242
0.0011485951154563
0.0010822692777721
0.00130234901067637
0.00145865503462777
0.00071465599186272
-0.000253139326192033
0.000359656613555773
0.000933443822523605
0.000797808486761804
0.00108735552451948
0.000810999772264909
0.000501558500581708
0.000939868244580988
0.00132025711050837
0.000796740427347417
9.91602293622722E-05
0.000377811020683984
0.000783709939551022
0.000798996287561474
0.00100540812117889
0.00110904493800211
0.000918895013061062
0.000298474616141224
0.000105720416571797
0.000449272229164135
0.000826152496799072
0.000673200662813297
0.000642146123488174
0.00110317121861858
0.000911907360905413
0.000457454341682696
0.000358148536324489
0.000592698360689162
0.00102305559331944
0.000935034056223003
0.000736099584949484
0.000479364552249029
0.000408680367531076
0.000756240956646888
0.00120222011270116
0.00121076467501663
0.00070600673082732
0.000323827921163118
0.000470043015727876
0.000991663107313167
0.00126966989931607
0.000900769296229193
0.00083614216617227
0.000944601437856758
0.000751182863516242
0.000590908073935055
0.000466193951566803
0.000504384176997798
0.000679522543035973
0.000842619049390139
0.00132018917067315
0.00117854060490361
0.000938775979846826
0.000388383680222797
0.000156879248598674
0.000487652086872591
0.000710200003153977
0.000581815921144532
0.000756868959577817
0.000585838621294383
0.00049138477559514
0.000759250941989025
0.000347322869951537
-6.32966163311288E-05
0.000108952890768376
0.000371108529577842
0.000665054575146906
0.000832810075716553
0.000713044677531239
0.000455418080694465
0.000418976118660096
0.000406954878086639
0.000333133826798844
0.00073358823657261
0.00133698721340031
0.00130312933107381
0.000826460507290393
0.000196746560697784
-7.41019298335598E-05
0.000462876803618468
0.000754016757534619
0.000656944052927293
0.000914696991243868
0.000631021788046116
0.000906535365003554
0.00154811721049685
0.00088927596310886
-0.000103058119384622
7.49151003293408E-05
0.000989768347558696
0.00128212457315892
0.00123483135101891
0.00106320305058671
0.000712724377269777
0.000748042251633039
0.000877331613349143
0.0012841658490528
0.00112071155889806
0.000562665371495761
0.000264626142034473
0.00054662895260376
0.000704622670607002
0.00093524296977882
0.000842600186751373
0.000455179272646153
0.000527121101397051
0.000659206544866028
0.00112214496210141
0.00117954906107394
0.000920204422481641
0.00095967133539859
0.00116828494370894
0.00074419486911932
0.000596759140784569
0.00101112384358435
0.00151844196050321
0.00153422904331211
0.00117441773198564
0.00137173886514226
0.00147911594469618
0.00121447290202501
0.00105426658015646
0.00113534431555378
0.00127336709255409
0.00149884297316989
0.00139118435891554
0.00144206098432497
0.00167242188670399
0.00155151981223895
0.00179686247868578
0.00172027634407324
0.00163475360875019
0.00227840922086589
0.00219695642178986
0.00204710072027253
0.00240876681011064
0.0026015601994327
0.00248364585464242
0.00258402500794769
0.00313734500543169
0.00322896116883397
0.00327987969531336
0.00351458593866407
0.00343854650683731
0.00325554559724172
0.0035285687754498
0.00352822339142962
0.0033779316775556
0.0035949964553082
0.00387684352614785
0.00403386278621004
0.0041395776681322
0.00412980441471146
0.0037210069969647
0.00382189795377903
0.00416889962858281
0.00405332441328591
0.00414574944351169
0.00475191763302206
0.00451720992233841
0.00435933394690027
0.00473956963750157
0.00489341710318206
0.00500244024409938
0.00490544701041696
0.0048472500606717
0.00507927322300998
0.00527649475824048
0.00597899266449709
0.00582409784249559
0.00550203445845293
0.00590889500501944
0.00617050349704934
0.00625053429337206
0.00633985737609462
0.00622015308253812
0.00636646943141688
0.00654302414198406
0.00659721221846209
0.00667632983857277
0.00688869925277049
0.00706754223727789
0.00737004558765676
0.00780160346841764
0.00790344963619966
0.00766494195475383
0.00797994716509096
0.00845361507709172
0.00853232258688234
0.00864004475136089
0.00880128609509441
0.00884695640477449
0.00891396914428194
0.0093357007226017
0.00981588388552153
0.00989177953960102
0.0100478825326255
0.0109369154003731
0.0120443948187142
0.0126597405147689
0.0131958308396903
0.0145216061562085
0.0158507423145189
0.0167743882953556
0.0182999267806312
0.0203467587639574
0.0226316176084531
0.0254332623258795
0.0281104913409321
0.0303012689935194
0.032955484934516
0.0355805446132862
0.0378350854190353
0.0397901919320787
0.0415651801247433
0.0433690186302317
0.0449143717022072
0.0467903542372434
0.0502710300488317
0.0557048305547313
0.0629421670905812
0.0720042519462399
0.083201399088194
0.0962657363086238
0.11192126533919
0.130265316844232
0.151298342895595
0.175225730137676
0.202684382648765
0.234971136880697
0.27435952245719
0.321231456682142
0.373976946669352
0.429114266185499
0.478352515549402
0.508211852259151
0.510177338441952
0.487820197584887
0.454127961711544
0.418061245329774
0.385449528604412
0.357992939685203
0.333945546736406
0.312239384328259
0.293692675742505
0.277467719303267
0.262239740046087
0.24737971003299
0.232559426711517
0.217396953224727
0.202068802004417
0.187571078622722
0.173901812600268
0.160280616250827
0.147932909410534
0.136696120651689
0.12692455913319
0.119351336699952
0.113274592451311
0.108846891981966
0.106387558336157
0.106004530751934
0.109026673818852
0.116694172012696
0.129703384614333
0.149745535078063
0.180061885337766
0.224102192699863
0.285556695145661
0.364142540613467
0.44154526315232
0.480378713438742
0.46229536987777
0.408137965005561
0.345309263741978
0.288959726518285
0.244584851053756
0.209710036961567
0.181786493377335
0.160057195072285
0.143256837781969
0.129916220854239
0.11854249340212
0.108680584157263
0.101097775623977
0.0942803459143719
0.0878919641668689
0.0824926187643034
0.0779541011311149
0.0736334277050183
0.0695841127116481
0.0661939945774414
0.0629582173821599
0.0595949214533897
0.0571946750696028
0.0548606662078584
0.0523060846279964
0.0503223898658033
0.0481807194270099
0.045888878721849
0.0442565201881673
0.0427680327627487
0.041157522347262
0.0395271446698932
0.0379667945828941
0.036414312779559
0.0351518282892157
0.0340493091546903
0.0330238885389757
0.031910386038512
0.0309024119196489
0.0298628980139724
0.0289271825795979
0.0283280940861609
0.02765365487386
0.0268795841550837
0.0261731143293739
0.0255155395048112
0.0247590870704491
0.0240113781486214
0.0237958146416695
0.0234310100331132
0.0227811193197182
0.0224777942005774
0.0223497649939035
0.0220455365037391
0.0219713792778499
0.0217947902178663
0.021472511108158
0.0211365312670836
0.0208935964977784
0.0207668470686954
0.0204968978648129
0.0204966232084381
0.0203484952907696
0.0200231246770327
0.0198682033964165
0.0195961828522479
0.0190963135585628
0.0188313352715119
0.0187334108439619
0.0184669795455898
0.0181657210939782
0.017660851607764
0.0172110686987158
0.0171044770964152
0.0170812848626186
0.0170772278652006
0.016841630758033
0.0166521450784324
0.0166386393307179
0.0166641321004636
0.0164793221870251
0.0161697474801512
0.016058422524448
0.0160920519421334
0.016143333261971
0.016144971085917
0.0161895597158115
0.0161969046519147
0.0161285762801424
0.0162746531855709
0.0162839917862577
0.0160597547559825
0.0162174629200796
0.0165783144114565
0.0167031880370092
0.0166491941959185
0.0166552902554639
0.0165748904877419
0.016540296065729
0.0167168730049593
0.0168258141245396
0.016930190057342
0.0170912109219159
0.0171643460936823
0.0171137740441363
0.0168890940879905
0.0167364491377903
0.0166987845374495
0.0168022345659867
0.0168458396714355
0.0168059537982007
0.0167981486811577
0.0168649129851205
0.0169959603477764
0.0167791099062954
0.0163386816291775
0.0158994117827791
0.0156430105450936
0.0156981433598619
0.0156461554427521
0.0154578958044144
0.0152992054517728
0.0148607496129253
0.014325363935308
0.0139870943412347
0.0139402727492184
0.0137570908631685
0.0132142280002939
0.013105754024183
0.013212623931325
0.0130475388706211
0.0126904930376502
0.0121320037022967
0.0119038411814977
0.012044730811398
0.0120843460140505
0.0118307949276233
0.0116689241505775
0.0112889067365147
0.0107701005656295
0.0109636366076312
0.0110594677557784
0.0108330521626925
0.0108176635781239
0.0107161647713289
0.0106190301832782
0.0105747912422639
0.00994097263534029
0.00956934298514681
0.00978261950128257
0.0096204810554728
0.00935469886463377
0.00926301512511714
0.00944535059020147
0.0094597696666537
0.00936049159102019
0.00943814126919665
0.00932207354097536
0.00925078665572729
0.00913838572758781
0.00839717248569035
0.00822252432258856
0.00860016027170131
0.00808829082820157
0.00726420386963064
0.00767018276573354
0.00853588179012837
0.00868286582630412
0.00865993856424538
0.00845519565937186
0.00781468603047452
0.00781732365171493
0.00826896472845755
0.00812695296475745
0.00765937508700486
0.00739791367895859
0.00745585669384303
0.00783143817797081
0.00816905646812522
0.00812513533593853
0.00803164579586696
0.00770361651518145
0.00736006594777707
0.00727056809057422
0.00700552564208731
0.0071624384454428
0.0073268009762829
0.00695491086586481
0.00697774232592237
0.00687265689148529
0.00707097971399696
0.00734207074206615
0.00692990483602938
0.00691672323284264
0.00657957201914061
0.0061562438404425
0.00631780734115883
0.00646069661863906
0.00680385662327225
0.00697630741997194
0.00679183732872024
0.00659551178483189
0.00637482173928789
0.00632079055923356
0.00627004626243133
0.00621607812677966
0.00624496366712152
0.00615177775566479
0.00601092277525461
0.00631019443913587
0.00669864480200064
0.00648086203601422
0.00596763065299953
0.00592396249431601
0.0065331467942275
0.00693404995596198
0.00671747776674999
0.00656080217337874
0.00624588082700587
0.00581276397258991
0.00586888179772208
0.00617887684647829
0.00620265643569537
0.00615169684457221
0.00621267513911159
0.00597168734787045
0.00602911927942376
0.0069944840171486
0.00718094895726111
0.00645713881988504
0.00636664562922023
0.0064385723296705
0.00639254890905474
0.00672915357443934
0.00692279920194014
0.00647595559719452
0.00595722026829211
0.00593613681300487
0.00588629736325304
0.00576924640809217
0.00578152836024472
0.00598224242893646
0.006091628500481
0.0061636908453126
0.00613532722063161
0.00602713489147793
0.00586498820653593
0.00586367153921391
0.00658694438456823
0.0072571635693728
0.0072152334749783
0.00677874930878872
0.00671465715686446
0.00710518693168087
0.00715852722245725
0.00758545144333514
0.00760032162544664
0.00696966189171305
0.0068002500204063
0.00693346017848391
0.00715591447230599
0.00714963204632478
0.0072728352854193
0.00743265900542297
0.00715004901765861
0.00708270520209095
0.00717805876975109
0.00741884252163015
0.00782424653738819
0.00845821830251178
0.00898587188825048
0.0088844351931578
0.00834946690452335
0.00827053399041283
0.00896788711256064
0.00873776560834571
0.0082044505910865
0.00845928800164217
0.00879143132702836
0.00923543390642602
0.00915664766947359
0.00943602173995423
0.0101801729606976
0.0100295746604212
0.00949713307222967
0.00921415477076605
0.00917477185047004
0.00886345899993793
0.00870268163600779
0.00870230292417152
0.00825387191821322
0.0081359159259319
0.00815689031899843
0.00784348633587022
0.00757793946036623
0.00807728762829963
0.00862392467185971
0.0079055402859433
0.00712754661827389
0.0075647037072596
0.00851804001334465
0.00891130589750744
0.00837262046023106
0.00790032636595005
0.0081811450315707
0.00795982691330272
0.00784791779114173
0.00821761556189736
0.00776706041222542
0.00774920148282059
0.00807092623283924
0.00765739359169163
0.00663978227377909
0.00670487564807268
0.00731628473850481
0.0073149789278746
0.00676032284452125
0.00650620359261788
0.00682655792643887
0.00663983526447284
0.00596542334544169
0.00580701233297851
0.00687791142834201
0.00786620540718237
0.00748983674509011
0.00703075288257582
0.00625234294170605
0.00563854063422231
0.00556410097407905
0.00609119406023174
0.00582821235931683
0.00507697282215754
0.00555690503319957
0.0064772095213439
0.00703905327134247
0.00624087696174785
0.00544186408204111
0.00568876262780756
0.00587229449967602
0.00555480164041897
0.00531620092399797
0.00595852369419532
0.0070211652796092
0.00617206394204942
0.00511785065816122
0.00639786535884959
0.00667349946237812
0.00642293161480129
0.00624087369971601
0.00486656460579806
0.00486964907628547
0.00623429757909067
0.00756174475977737
0.00706650407174244
0.00583301409822402
0.00463510427034943
0.0040845587079191
0.00437376923884238
0.00551172430173743
0.00662403845295122
0.00709429827717996
0.00707131563319101
0.00610453051145705
0.00462784330307459
0.00549793784614484
0.00716922691671076
0.00673445377740265
0.00630789399329971
0.00450790712952151
0.00240579399029152
0.00365216932994363
0.00381148144061966
0.0034114017837454
0.0026090045125212
0.00349885809856954
0.00501796138223274
0.00514721500407858
0.00391390617018802
0.00383234364041334
0.00526609091379793
0.00497802344975118
0.00445342025052248
0.00444630911561866
0.00449020636161522
0.00388840317148718
0.00370140486930476
0.00389792250526622
0.00354297781389568
0.00344028794114159
0.00368838168035451
0.00351895523663999
0.00424119034178036
0.00536602000776182
0.00559660304546839
0.00529825463943783
0.00615266421228244
0.00673750740721528
0.00539017236791493
0.0047639116492304
0.00553128609524431
0.00612567362140687
0.00604287204892318
0.00527355569024387
0.00435774561169703
0.00422449804999603
0.00447319962093852
0.00533245388400914
0.00616496952173027
0.00581957547804184
0.00535390227275909
0.00564830696769693
0.00592374488739554
0.00597199332781727
0.00635873836555322
0.00706925248931903
0.00734785774565263
0.00647008517893863
0.00665051036053322
0.0075449716778411
0.00685838054511657
0.00539108602849867
0.00473630173134614
0.00526611811888575
0.00646894782653231
0.00770459025748696
0.00759864891963847
0.00672341922349489
0.00693153074212252
0.00734237916592121
0.00700801631651053
0.00573551426205874
0.00558851131062304
0.00670631953930019
0.00595621149794999
0.00634315986403122
0.00581566295381767
0.00396388104635096
0.00582121481562062
0.00788592203936448
0.0057802137233164
0.00368804398210458
0.00448173614494508
0.00606715640341505
0.00704827015113574
0.00664336359924768
0.00669310531270621
0.00731325943591482
0.00615106967723871
0.00484431539729099
0.00515862125112855
0.00384458945936705
0.00368803506858097
0.00575487043209898
0.00541719444971513
0.00673914405797183
0.0073919696608343
0.00587847908398348
0.00603857343792762
0.00659062782022923
0.00432831639245891
0.00515403755000788
0.00721420751931205
0.00517248948191881
0.0040998185710582
0.00599784872911995
0.00759353608465387
0.00621822749170898
0.00471194848720177
0.00494736462966848
0.00455809362694405
0.0051779567763723
0.0064018034798386
0.00709932524177256
0.00596239835249968
0.00507445499333125
0.0046214434241348
0.00462883753540032
0.00479201594192703
0.00382485516307137
0.00337137228708825
0.0051890719278576
0.00560006043947175
0.00515207413715139
0.00438575174871214
0.00378833678717929
0.0044815155154838
0.00436688890045759
0.00372132596536918
0.00478195960730226
0.00450080961732793
0.00462079871317463
0.00611677114134405
0.00647914859221168
0.00563285554454063
0.00489829324255904
0.00530331276413559
0.00610882167515976
0.00678892313380626
0.00631485260614955
0.00576776556156411
0.00580956577937082
0.00621131443991412
0.00593069832543703
0.00559929585353146
0.00537215482890972
0.00533006165298006
0.00582219749102414
0.00603918139529131
0.00630052016345423
0.00698811863901769
0.00708495321683076
0.00656618504818308
0.00668865697402601
0.0067241548523913
0.00637290455562405
0.00616400706458828
0.00611590225896878
0.00596270961716085
0.00589392384348851
0.00578813791975626
0.00589626698858054
0.00612392410542869
0.00640270498400079
0.00676310856469376
0.00648958795239969
0.0060868526790857
0.00593115701034806
0.0055748827485965
0.00556103641959309
0.00584711504895452
0.00553009633647584
0.00521462071081881
0.00553659334814277
0.00545949574569215
0.00553178310693477
0.00549442669538383
0.00631136878463184
0.00659638378052471
0.00621190423059792
0.0057356746939397
0.00551018014268032
0.00576137615822462
0.00576180782749483
0.00561895864603035
0.00631625227570599
0.00674374625426243
0.00667469695301434
0.0067975203151284
0.00669945558267588
0.00624904644792806
0.0059050205132339
0.00589679815927948
0.00557496304282003
0.0054989245296445
0.00595038415145961
0.00638501351626815
0.00657087583395446
0.00637371224468019
0.00619567350597405
0.00659253610684924
0.00704026147070681
0.00699829442566265
0.0067044539557603
0.00639068416149493
0.00680749833858088
0.00736907258554324
0.0071643082926435
0.00649046913655919
0.00649270560984001
0.00668032368629368
0.00693751120615727
0.0069505633893244
0.00639565108413619
0.0063783455161205
0.00698205346581454
0.00775226103103259
0.00779540163226991
0.00782039631126033
0.00703850282413739
0.00655773686705071
0.00666177846834224
0.00728099938091016
0.00712129899796801
0.00729825467204879
0.00708735083322517
0.00695834773312655
0.00746534534742586
0.00820002752867018
0.00853931480181646
0.00811033479190554
0.00773576231058708
0.00764797079810869
0.00789923501676647
0.0081193902197701
0.0078841822057207
0.00894731892388277
0.00945699742792955
0.00941882585877633
0.00881379233346355
0.00825520894700607
0.00804555141782095
0.00880818386206007
0.00973968721043763
0.0107483428043784
0.0120390439903038
0.0127529638307567
0.0124254070901602
0.0107388330523715
0.00935329183379842
0.00840113484084846
0.00848522581688571
0.00919186779872192
0.00893898766555172
0.0100421997889694
0.0104885385723283
0.0101080171625275
0.0102038063006098
0.00893973812340717
0.00797388931401984
0.00706644317705599
0.00712911033345712
0.00758052215192811
0.00910917823080047
0.00955253019017126
0.00960492357369707
0.00787838788348829
0.00736560026867698
0.00787313291196873
0.00810826300515448
0.00801410581240286
0.0083810677352616
0.00869710148593972
0.00800990781587421
0.00722362092169003
0.00747884894639019
0.00784865854212429
0.00761056814060322
0.00719365483973496
0.00850900266633279
0.01060064831491
0.0108219440990665
0.0093345462289688
0.00885060416378664
0.00903026879927246
0.00858143756833706
0.0080049696112305
0.00762332090317545
0.00795871069199118
0.00924468127151416
0.00987309692623129
0.00911797136569627
0.00787424089900353
0.00780865613723973
0.00818256543085301
0.00874832016720434
0.00883851213096905
0.00858910289886203
0.00810785798294244
0.00820152649875067
0.00838798736055762
0.00820684728110828
0.00781268112965047
0.00752255509398913
0.00774856479023238
0.00803917341089637
0.00815222494249207
0.00775048911324561
0.00764950225103297
0.00776427041271583
0.00785211412793103
0.00773887517677602
0.0079435833698228
0.00798292857182488
0.00814113473071874
0.00804131545954337
0.00791982018360096
0.00786684613396366
0.00812722384059245
0.00807399674090747
0.00852067245308391
0.00931872217383661
0.00963238375339457
0.00892258572240019
0.00851750614854872
0.0087112982572271
0.0090315234415477
0.00882827683077024
0.00832751403000377
0.00866692661180794
0.0103001845791331
0.0124923585880361
0.0120056364093458
0.00985267095458132
0.00916853554369273
0.00925049075673239
0.00903745573993269
0.00912237634099441
0.00925508214710445
0.0103250094634052
0.0114690188256273
0.0127217115012426
0.0120433676146232
0.0101791456397238
0.0095209043036486
0.01000853625815
0.00982903723207808
0.00978584341839224
0.0102963640887143
0.0106502526894137
0.0114819736011146
0.011855227009854
0.0120201804670433
0.0112930861923073
0.0113678879577981
0.0113704542990165
0.0111906879086124
0.0116310697572695
0.0129123341801873
0.0145252525857562
0.0135811289640082
0.0113740510345005
0.0111364610646456
0.0120308311935254
0.0129880814367003
0.0134682321078225
0.0133684750285778
0.0134934403439063
0.0148440787593648
0.0158142820099925
0.0160101498518341
0.0162445788680272
0.0169970500415103
0.0187617177708199
0.0215352579489045
0.0281618082517031
0.0498326216031349
0.0945622042519551
0.142275418570366
0.155908408956089
0.156050382331916
0.158898061795087
0.162966365534085
0.159782431242663
0.145268764695987
0.130427522454886
0.115236693929502
0.0938396526983348
0.0786059405089528
0.0704340708218578
0.0647065277362736
0.059808386530867
0.0540157314248283
0.0500107309699979
0.0475382136054923
0.0460103544541838
0.0457811786387638
0.0449850422634733
0.039767060935476
0.0353802534729558
0.0332761144609398
0.0306980178790408
0.0273678865302411
0.0248447315804801
0.0231067054770413
0.0217245399646004
0.0215306888297123
0.0202694033582343
0.0177366405123122
0.0165429053587464
0.0162402925313995
0.0162634413375374
0.0159535941187316
0.0158558384576085
0.0156436027064526
0.0151210095877537
0.0148105059508287
0.0152242198848245
0.0152536368858559
0.0153589098548859
0.0148923890663651
0.013831995370921
0.0139387589532292
0.0149595447006118
0.0156779602617891
0.0158466408591662
0.0173167714378433
0.0203824907328191
0.0244402779953613
0.0273443641162543
0.0283014400285546
0.0273918900654325
0.0262199681061697
0.0263366584984302
0.026357008434972
0.0258930483788548
0.0257060594621929
0.0248268645820568
0.0231051811766887
0.0221022481955097
0.0218419362645029
0.0220358140221652
0.0220862540105465
0.0219140546528627
0.0216643455899049
0.0211519500610744
0.0204694531743345
0.0200460659526292
0.0199848663950233
0.0199639050931273
0.0190213290378657
0.0176684613694828
0.0165772919351411
0.015852011413244
0.0154867793775671
0.015271608728551
0.0151800416786976
0.0153231820544544
0.0154659575613186
0.0157708778493099
0.0162939123095062
0.0167112693990369
0.0169876758011893
0.0172661278033313
0.0175986706572883
0.0179702974725694
0.0184099643845065
0.0188037683628345
0.018979967324619
0.0190498239777114
0.0190121396263012
0.0189877496038618
0.018885810144958
0.018463543546718
0.0179705872907353
0.017736904267821
0.0172620110480399
0.0167707526709954
0.0164112778922333
0.0161440342301696
0.0159766337288258
0.0157895544461651
0.0154838572610783
0.0153769526150568
0.0154172564959289
0.0154525562537753
0.0153669211379316
0.0150969551136891
0.014903150457821
0.0148386910284138
0.0146457642912429
0.0144889823716098
0.0143391982157925
0.0140885948103715
0.0139262546569072
0.0138243928020015
0.0136985505488159
0.0136253761321134
0.0136388562325488
0.0136203679765574
0.0133981010813914
0.0130771935935627
0.0129217545021704
0.0128969550025934
0.0129619997254781
0.0129607853521287
0.0128389715707199
0.0128024790975629
0.0125356326670772
0.0122241819612149
0.0121680585681926
0.0122043161133541
0.0122122338946196
0.0121659511163371
0.012005622886821
0.0118949423394864
0.0119743403345383
0.0119818095534525
0.0118878825314027
0.0118146697385527
0.0117441424898856
0.0116362382355022
0.0116195772393298
0.0115537600820079
0.011512525274732
0.0115279581695683
0.0115642048361124
0.0115249113292963
0.0115072758763097
0.0114990175990293
0.0114655333012939
0.0113737931247141
0.0112892078775788
0.0113694642865821
0.0114909031434415
0.0116050818855134
0.0116485648331857
0.0115457360128699
0.0113986475215867
0.0114071529541956
0.0113488606816265
0.0111749450724699
0.0111071676721846
0.0111668160638566
0.0110888183175214
0.0110131218880489
0.0110726857645718
0.0112340498114922
0.0113485148797261
0.0113215659618169
0.0112868881685885
0.0112181353336459
0.0112351517819955
0.011240031811
0.0111722405803772
0.011168799961526
0.0111686222382874
0.011171197033401
0.011063439458759
0.0110397170781515
0.0111780533444348
0.0112025938528657
0.0111897805247044
0.0110093082512887
0.0109953726090155
0.0110225589002824
0.0108971282094312
0.0108675287567178
0.0108932996962426
0.0108534196469367
0.0108657739943554
0.0110094075145438
0.0110352450570189
0.0109379623456147
0.0109435735945238
0.0109738579096671
0.0109338862834728
0.0109442062290825
0.0109761149282888
0.0110406483270077
0.0111784631929258
0.0113907221749423
0.0117445187768019
0.0120898585810685
0.0123170857568417
0.0124739857202983
0.0124080402380878
0.0125428638268811
0.0127356368509949
0.0127184433732863
0.0125884588151904
0.0124554247492106
0.0122034087782792
0.0120878492118374
0.0121407874820078
0.0120688122020753
0.0120054370850898
0.0121511488468797
0.0122418989881907
0.012262834196221
0.0120632728110183
0.0116724201815001
0.0115010369799786
0.0116385621715503
0.0116159845741718
0.0114029416726352
0.0111816791624733
0.0110540046525464
0.0109632106650869
0.0109285249602779
0.0109214255488642
0.0108298686501086
0.0107411033210131
0.0108081652047569
0.0109750776426631
0.0109466844933176
0.0107951559036089
0.0108096157654811
0.0109822305901841
0.01084212880911
0.0105915863058205
0.0105090835977797
0.0105120667189502
0.0105104630996957
0.0104096216926255
0.0105146906557764
0.0105822576178579
0.0105546856834534
0.0106529561490275
0.010655979594659
0.0106120606630347
0.0105575628067925
0.0105227087406106
0.0105373346163973
0.0104491550111686
0.010280612943297
0.0103225156918823
0.0104369407487538
0.0104761312124592
0.0105295166705592
0.0103580710500267
0.0101929559571305
0.0103503504678298
0.0105843996250016
0.0106422087673781
0.0106589172091904
0.0107682377714688
0.0108216003540335
0.010758504332196
0.0107001123183197
0.0106069648525364
0.010624850910821
0.0107381088438381
0.0105546423650063
0.0104229854453849
0.0103638835832021
0.0104110769226347
0.0105387739990901
0.0105233630699803
0.0104906008953874
0.0105408806576048
0.0105867623870733
0.0106584481135992
0.010808008556252
0.0106044834460099
0.0104234431985944
0.0104648081969617
0.0105157281468564
0.0104352698480433
0.0102999385782744
0.0104325327709827
0.0104768222605655
0.0104341143722772
0.0102958112866418
0.0103208878882538
0.0105981513853036
0.0105393295775984
0.0104317368401213
0.01066442466906
0.0110478091512462
0.0111236825801301
0.0110607699185453
0.0110165452403296
0.0107146460109561
0.010508517386762
0.0107794202537805
0.010994431897931
0.0112017169496858
0.0114342298007239
0.0115515628564826
0.0119000291694322
0.0120498758541086
0.012016240400655
0.0119470019697819
0.0117685664231164
0.011440769028564
0.0108428255341152
0.0106959140093671
0.0107541966116874
0.0107799280428211
0.0106281743215106
0.0102563254459094
0.0101794766701924
0.0101364041874282
0.00997881163562489
0.00993081180413647
0.0104003841642369
0.01073643802425
0.0104805800756145
0.010260036800503
0.0104649569686767
0.0105989100033677
0.0103566858619198
0.0104882033425208
0.0107723224278308
0.0107311760567544
0.0106269271971596
0.0104933634539438
0.0102361376865026
0.00981454567605502
0.00994341112079566
0.0102263168605661
0.0102492233640652
0.0104433559797925
0.0107560262038366
0.0111642910579728
0.0112560496639096
0.0109834967314366
0.0106980449717559
0.0105699149791366
0.0108308555138964
0.011275066171443
0.0110375763338882
0.0107719780738641
0.0110680998911033
0.0115490972408767
0.0115490928844414
0.0117054578202404
0.0119719184899312
0.0117904712964495
0.011933108252542
0.0120806660216138
0.0118360777186099
0.0118367142731415
0.0121913948722567
0.0124146917881026
0.0122680374332612
0.0124114974995608
0.0128831828950434
0.0128949893154074
0.0134140932937768
0.0138296401632958
0.0137536045514659
0.0140031880385549
0.0145462356055344
0.0143623346670101
0.0139450632370519
0.0138760000531987
0.0146006655693747
0.0149517288146353
0.0142285616568247
0.0145324884502052
0.0152629608805647
0.0154329502645733
0.0156982168023147
0.0165360376199533
0.0175126630338443
0.0180125739173549
0.0183734622112005
0.0193485154232026
0.020487875151524
0.0220441702075408
0.0238985723940441
0.0264778009026772
0.034014498075194
0.055891863026349
0.0828979573136194
0.0889704873489578
0.081724775400132
0.083264077410474
0.10017565325433
0.135544038699434
0.175059708247897
0.188196218476306
0.164741709231168
0.122345147070376
0.0868279191392472
0.0655794824606528
0.0518263563967791
0.0423328183163943
0.0357244228222935
0.030247390775407
0.0264066214397893
0.0237199752798746
0.0225485583378996
0.0222950154117694
0.022014105514347
0.0212891323988302
0.019542468882925
0.0179516510939263
0.017684123594157
0.0178361118692618
0.0168461899483564
0.0147856504799258
0.0136417648525456
0.0150690701709958
0.0158239988475037
0.0139937785749832
0.0133345885925169
0.0140950610590346
0.0149811281072537
0.0134152470373891
0.0126704587955492
0.0137155283490045
0.013392716599468
0.0130474822537554
0.0144951632209667
0.0152524717439845
0.0135651117249912
0.0116919659564133
